Interval=	0.005 s
ExcelDateTime=	4.4476799837398881e+004	10/7/2021 19:11:45.951264
TimeFormat=	StartOfBlock
DateFormat=	
ChannelTitle=	Vol. Pulse	Blood Flow	ECG
Range=	20.00 mV.s	200.0 mV	500.0 µV
0	0.00	3.0	20.6
0.005	0.04	14.2	125.4
0.01	0.14	21.4	97.6
0.015	0.25	22.0	-44.8
0.02	0.35	22.3	25.8
0.025	0.46	22.3	91.6
0.03	0.57	21.5	-45.7
0.035	0.67	19.6	-44.0
0.04	0.76	17.0	69.1
0.045	0.83	14.0	-16.9
0.05	0.89	11.0	-85.3
0.055	0.94	8.4	28.4
0.06	0.97	5.8	18.4
0.065	0.99	3.2	-95.3
0.07	0.99	0.9	-12.0
0.075	0.99	-1.0	55.8
0.08	0.97	-2.6	-73.8
0.085	0.95	-4.1	-62.6
0.09	0.92	-5.3	66.7
0.095	0.89	-6.3	-15.8
0.1	0.85	-7.1	-88.0
0.105	0.81	-7.5	32.3
0.11	0.77	-8.1	20.0
0.115	0.72	-8.8	-97.6
0.12	0.68	-9.1	-15.8
0.125	0.63	-9.0	53.0
0.13	0.58	-8.9	-75.8
0.135	0.53	-8.6	-73.9
0.14	0.49	-8.3	47.8
0.145	0.45	-8.2	-25.0
0.15	0.40	-8.3	-89.5
0.155	0.36	-8.3	31.1
0.16	0.32	-8.4	27.7
0.165	0.27	-8.4	-81.6
0.17	0.23	-8.2	-6.3
0.175	0.19	-8.2	62.7
0.18	0.14	-8.7	-47.8
0.185	0.10	-9.3	-51.3
0.19	0.05	-9.5	53.8
0.195	0.00	-9.9	-11.5
0.2	-0.05	-10.1	-75.4
0.205	-0.10	-10.0	32.5
0.21	-0.14	-9.7	32.9
0.215	-0.19	-9.4	-71.3
0.22	-0.24	-9.0	-5.3
0.225	-0.28	-8.6	54.8
0.23	-0.32	-8.1	-51.6
0.235	-0.36	-7.5	-43.7
0.24	-0.39	-6.6	54.8
0.245	-0.42	-5.9	-13.8
0.25	-0.45	-5.2	-64.2
0.255	-0.47	-4.1	38.5
0.26	-0.48	-3.2	29.8
0.265	-0.50	-2.5	-69.7
0.27	-0.50	-1.9	-5.2
0.275	-0.51	-1.4	51.0
0.28	-0.51	-1.3	-51.2
0.285	-0.52	-1.1	-47.3
0.29	-0.52	-0.7	55.5
0.295	-0.52	-0.3	-0.1
0.3	-0.52	0.1	-55.8
0.305	-0.51	0.7	37.7
0.31	-0.51	0.8	36.1
0.315	-0.50	0.4	-57.0
0.32	-0.50	-0.2	4.5
0.325	-0.50	-0.5	60.8
0.33	-0.50	-0.7	-41.8
0.335	-0.50	-0.7	-34.4
0.34	-0.50	-0.4	62.1
0.345	-0.50	-0.5	-7.1
0.35	-0.50	-1.0	-69.5
0.355	-0.51	-1.7	26.4
0.36	-0.52	-2.5	30.0
0.365	-0.53	-3.5	-64.3
0.37	-0.55	-4.0	-9.4
0.375	-0.56	-4.2	45.9
0.38	-0.58	-4.4	-38.8
0.385	-0.60	-4.3	-21.7
0.39	-0.62	-4.0	81.4
0.395	-0.64	-3.8	27.8
0.4	-0.65	-3.7	-28.7
0.405	-0.67	-3.7	54.8
0.41	-0.68	-4.0	57.6
0.415	-0.70	-4.6	-3.3
0.42	-0.72	-4.9	64.9
0.425	-0.74	-5.0	104.1
0.43	-0.77	-5.1	19.1
0.435	-0.79	-5.0	27.2
0.44	-0.81	-4.8	99.9
0.445	-0.83	-4.8	47.7
0.45	-0.85	-5.0	5.7
0.455	-0.87	-4.9	88.2
0.46	-0.89	-4.9	77.0
0.465	-0.91	-4.9	-13.2
0.47	-0.93	-4.7	30.9
0.475	-0.95	-4.4	74.6
0.48	-0.97	-4.4	-12.0
0.485	-0.98	-4.5	-21.8
0.49	-1.00	-4.4	51.1
0.495	-1.02	-4.2	-11.6
0.5	-1.03	-4.1	-59.9
0.505	-1.05	-4.0	30.2
0.51	-1.07	-4.1	22.2
0.515	-1.08	-4.5	-55.8
0.52	-1.10	-4.5	-2.5
0.525	-1.12	-4.3	36.6
0.53	-1.13	-4.0	-46.5
0.535	-1.15	-3.5	-47.8
0.54	-1.16	-3.0	29.9
0.545	-1.17	-2.9	-20.3
0.55	-1.18	-3.1	-75.1
0.555	-1.19	-3.3	0.6
0.56	-1.20	-3.5	-8.4
0.565	-1.21	-3.5	-89.3
0.57	-1.22	-3.1	-17.0
0.575	-1.23	-2.6	56.5
0.58	-1.24	-2.5	59.4
0.585	-1.24	-2.5	209.3
0.59	-1.25	-2.4	325.3
0.595	-1.26	-2.5	123.2
0.6	-1.26	-2.6	-0.5
0.605	-1.27	-2.4	100.8
0.61	-1.28	-2.2	-96.1
0.615	-1.28	-2.1	-424.5
0.62	-1.29	-1.9	-373.9
0.625	-1.29	-1.5	-173.8
0.63	-1.29	-1.4	-151.1
0.635	-1.29	-1.4	-123.5
0.64	-1.29	-1.4	-17.2
0.645	-1.29	-1.7	-28.5
0.65	-1.30	-2.1	-56.0
0.655	-1.30	-2.3	17.9
0.66	-1.31	-2.4	22.3
0.665	-1.31	-2.6	-33.4
0.67	-1.32	-2.5	9.8
0.675	-1.33	-2.4	58.0
0.68	-1.33	-2.4	-0.9
0.685	-1.34	-2.3	-3.2
0.69	-1.34	-1.9	66.8
0.695	-1.35	-1.8	31.9
0.7	-1.35	-2.0	-1.0
0.705	-1.35	-2.1	64.3
0.71	-1.36	-2.4	65.2
0.715	-1.36	-2.8	5.9
0.72	-1.37	-3.1	43.5
0.725	-1.38	-3.0	82.6
0.73	-1.39	-3.0	24.7
0.735	-1.40	-2.8	28.1
0.74	-1.41	-2.7	89.6
0.745	-1.41	-2.8	55.0
0.75	-1.42	-3.0	25.9
0.755	-1.43	-2.8	94.5
0.76	-1.44	-2.7	90.7
0.765	-1.44	-2.8	30.0
0.77	-1.45	-2.9	82.2
0.775	-1.46	-2.7	122.0
0.78	-1.47	-2.5	61.7
0.785	-1.47	-2.1	69.7
0.79	-1.47	-1.8	125.4
0.795	-1.48	-1.8	94.0
0.8	-1.48	-1.8	67.3
0.805	-1.48	-1.1	123.9
0.81	-1.47	0.3	132.2
0.815	-1.46	2.1	79.2
0.82	-1.44	4.8	113.8
0.825	-1.40	7.9	152.8
0.83	-1.35	11.0	85.4
0.835	-1.28	14.3	80.6
0.84	-1.19	17.3	126.9
0.845	-1.09	19.5	72.4
0.85	-0.99	20.8	34.9
0.855	-0.88	21.8	78.4
0.86	-0.76	22.4	59.9
0.865	-0.65	22.1	-9.3
0.87	-0.54	21.1	15.8
0.875	-0.43	19.5	48.3
0.88	-0.34	17.4	-9.6
0.885	-0.26	15.0	-13.7
0.89	-0.19	12.5	35.4
0.895	-0.13	9.6	-2.0
0.9	-0.09	6.7	-37.3
0.905	-0.06	4.2	10.0
0.91	-0.05	2.1	7.0
0.915	-0.04	0.2	-42.0
0.92	-0.04	-1.2	-8.8
0.925	-0.05	-2.3	22.2
0.93	-0.07	-3.3	-31.5
0.935	-0.09	-4.1	-38.1
0.94	-0.11	-4.5	15.4
0.945	-0.13	-5.1	-14.1
0.95	-0.16	-5.8	-56.8
0.955	-0.19	-6.3	2.0
0.96	-0.22	-6.8	12.7
0.965	-0.25	-7.2	-48.2
0.97	-0.29	-7.3	-19.9
0.975	-0.32	-7.1	11.7
0.98	-0.36	-7.2	-37.1
0.985	-0.39	-7.1	-31.1
0.99	-0.42	-7.0	19.5
0.995	-0.46	-7.1	-7.8
1	-0.49	-7.4	-37.3
1.005	-0.53	-7.5	11.9
1.01	-0.56	-7.6	7.2
1.015	-0.60	-7.8	-49.0
1.02	-0.63	-7.8	1.1
1.025	-0.67	-7.8	41.1
1.03	-0.71	-7.8	-23.5
1.035	-0.74	-7.8	-24.6
1.04	-0.78	-7.8	24.9
1.045	-0.81	-8.1	-7.7
1.05	-0.85	-8.4	-32.1
1.055	-0.89	-8.2	17.9
1.06	-0.92	-7.9	17.1
1.065	-0.96	-7.3	-29.1
1.07	-0.99	-6.2	-1.4
1.075	-1.01	-5.0	21.5
1.08	-1.03	-3.9	-21.9
1.085	-1.04	-2.9	-16.7
1.09	-1.05	-2.0	28.1
1.095	-1.05	-1.3	6.3
1.1	-1.05	-0.9	-18.7
1.105	-1.05	-0.5	17.0
1.11	-1.05	-0.3	17.4
1.115	-1.04	-0.3	-18.5
1.12	-1.04	-0.0	3.9
1.125	-1.03	0.5	26.2
1.13	-1.02	1.1	-16.4
1.135	-1.01	1.6	-11.1
1.14	-1.00	2.2	31.3
1.145	-0.98	2.3	0.4
1.15	-0.97	2.1	-22.3
1.155	-0.95	1.9	19.9
1.16	-0.94	1.5	19.5
1.165	-0.93	1.0	-21.4
1.17	-0.92	0.7	4.9
1.175	-0.92	0.7	26.9
1.18	-0.91	0.7	-14.5
1.185	-0.90	0.8	-9.1
1.19	-0.89	0.9	27.0
1.195	-0.88	0.7	0.1
1.2	-0.88	0.1	-21.5
1.205	-0.87	-0.4	7.7
1.21	-0.87	-0.8	6.6
1.215	-0.87	-1.3	-10.5
1.22	-0.88	-1.5	30.7
1.225	-0.88	-1.6	60.4
1.23	-0.89	-1.8	10.0
1.235	-0.89	-1.9	-7.6
1.24	-0.90	-2.0	31.4
1.245	-0.90	-2.4	25.9
1.25	-0.91	-3.1	29.9
1.255	-0.93	-3.7	74.1
1.26	-0.94	-4.1	61.6
1.265	-0.96	-4.3	25.2
1.27	-0.97	-4.0	55.2
1.275	-0.99	-3.5	73.1
1.28	-1.00	-3.3	41.6
1.285	-1.01	-3.1	40.8
1.29	-1.02	-3.1	70.2
1.295	-1.03	-3.2	53.3
1.3	-1.04	-3.2	14.8
1.305	-1.06	-2.9	32.9
1.31	-1.06	-2.8	25.5
1.315	-1.07	-3.1	-19.0
1.32	-1.09	-3.3	4.4
1.325	-1.10	-3.3	34.7
1.33	-1.11	-3.4	-6.9
1.335	-1.12	-3.3	-13.6
1.34	-1.13	-3.1	24.1
1.345	-1.14	-3.2	-2.2
1.35	-1.15	-3.4	-22.7
1.355	-1.16	-3.2	14.3
1.36	-1.18	-3.1	5.1
1.365	-1.19	-3.1	-36.5
1.37	-1.20	-3.0	-5.1
1.375	-1.20	-3.0	17.5
1.38	-1.21	-3.0	-24.8
1.385	-1.22	-2.9	-21.9
1.39	-1.23	-2.6	1.0
1.395	-1.24	-2.3	-28.2
1.4	-1.24	-2.1	-14.5
1.405	-1.25	-2.0	67.1
1.41	-1.25	-1.8	134.8
1.415	-1.25	-1.5	223.2
1.42	-1.25	-1.2	253.5
1.425	-1.25	-1.2	81.8
1.43	-1.26	-1.7	-24.1
1.435	-1.26	-2.0	-1.7
1.44	-1.26	-1.9	-184.1
1.445	-1.27	-1.7	-439.9
1.45	-1.27	-1.5	-422.9
1.455	-1.27	-1.1	-221.8
1.46	-1.27	-0.9	-103.8
1.465	-1.27	-0.9	-94.9
1.47	-1.27	-0.8	-68.6
1.475	-1.26	-0.7	-24.8
1.48	-1.26	-0.9	-35.4
1.485	-1.26	-1.1	-23.3
1.49	-1.26	-1.1	14.4
1.495	-1.26	-1.2	-0.2
1.5	-1.26	-1.5	-12.2
1.505	-1.26	-1.6	18.6
1.51	-1.27	-1.8	20.3
1.515	-1.27	-1.9	-9.7
1.52	-1.27	-1.8	13.1
1.525	-1.28	-1.6	36.8
1.53	-1.28	-1.6	7.0
1.535	-1.28	-1.6	3.4
1.54	-1.28	-1.5	29.1
1.545	-1.29	-1.7	19.0
1.55	-1.29	-2.1	9.3
1.555	-1.29	-2.3	35.9
1.56	-1.30	-2.4	31.7
1.565	-1.31	-2.5	6.7
1.57	-1.31	-2.4	25.3
1.575	-1.32	-2.1	42.5
1.58	-1.32	-2.2	19.8
1.585	-1.33	-2.3	17.3
1.59	-1.33	-2.2	46.1
1.595	-1.34	-2.2	38.1
1.6	-1.34	-2.4	27.5
1.605	-1.35	-2.6	52.0
1.61	-1.36	-2.6	53.3
1.615	-1.36	-2.4	30.5
1.62	-1.37	-1.9	46.0
1.625	-1.37	-1.4	71.9
1.63	-1.37	-1.1	50.5
1.635	-1.37	-0.7	45.9
1.64	-1.36	0.1	80.7
1.645	-1.36	1.2	67.4
1.65	-1.34	2.9	41.5
1.655	-1.31	5.4	65.5
1.66	-1.27	8.2	60.7
1.665	-1.22	11.1	29.7
1.67	-1.15	14.1	43.5
1.675	-1.07	17.1	48.9
1.68	-0.97	19.3	12.7
1.685	-0.87	20.6	0.6
1.69	-0.76	21.2	9.6
1.695	-0.65	21.0	-17.2
1.7	-0.54	20.1	-50.5
1.705	-0.44	19.1	-31.5
1.71	-0.35	17.8	-22.3
1.715	-0.26	16.1	-50.3
1.72	-0.19	14.3	-46.9
1.725	-0.12	12.1	-36.7
1.73	-0.06	9.3	-59.8
1.735	-0.03	6.6	-61.8
1.74	0.00	4.2	-40.4
1.745	0.02	2.0	-57.7
1.75	0.02	-0.0	-71.3
1.755	0.02	-1.4	-39.8
1.76	0.01	-2.5	-42.1
1.765	-0.01	-3.6	-78.5
1.77	-0.03	-4.5	-66.2
1.775	-0.05	-5.5	-48.2
1.78	-0.08	-6.7	-71.9
1.785	-0.12	-7.8	-69.6
1.79	-0.16	-8.4	-43.6
1.795	-0.20	-8.6	-58.3
1.8	-0.24	-8.6	-78.0
1.805	-0.28	-8.3	-58.9
1.81	-0.32	-8.2	-56.4
1.815	-0.36	-8.2	-78.3
1.82	-0.40	-8.0	-66.6
1.825	-0.44	-7.7	-48.9
1.83	-0.48	-7.7	-62.5
1.835	-0.51	-7.8	-67.4
1.84	-0.55	-7.8	-48.0
1.845	-0.58	-7.9	-60.8
1.85	-0.62	-8.1	-74.5
1.855	-0.66	-8.3	-48.3
1.86	-0.70	-8.7	-55.4
1.865	-0.74	-9.2	-79.0
1.87	-0.78	-9.4	-64.7
1.875	-0.83	-9.5	-53.5
1.88	-0.87	-9.7	-72.4
1.885	-0.92	-9.5	-72.9
1.89	-0.96	-8.8	-55.4
1.895	-1.00	-8.1	-68.5
1.9	-1.03	-7.3	-78.8
1.905	-1.06	-6.5	-61.9
1.91	-1.08	-5.7	-62.1
1.915	-1.11	-5.0	-82.3
1.92	-1.12	-4.0	-78.8
1.925	-1.14	-3.1	-60.6
1.93	-1.14	-2.6	-71.3
1.935	-1.15	-2.2	-79.6
1.94	-1.16	-1.5	-62.9
1.945	-1.16	-0.9	-64.1
1.95	-1.15	-0.6	-73.3
1.955	-1.15	-0.3	-71.3
1.96	-1.15	-0.2	-79.6
1.965	-1.14	-0.4	-92.8
1.97	-1.14	-0.5	-84.3
1.975	-1.14	-0.4	-74.7
1.98	-1.13	-0.5	-93.1
1.985	-1.13	-0.3	-100.8
1.99	-1.13	0.2	-81.8
1.995	-1.12	0.4	-89.5
2	-1.11	0.4	-103.9
2.005	-1.10	0.4	-84.8
2.01	-1.10	0.0	-81.3
2.015	-1.09	-0.6	-106.6
2.02	-1.09	-1.1	-83.8
2.025	-1.10	-1.5	-43.8
2.03	-1.10	-1.9	-64.1
2.035	-1.10	-2.1	-85.5
2.04	-1.11	-2.0	-72.7
2.045	-1.11	-2.3	-76.3
2.05	-1.12	-2.8	-73.1
2.055	-1.13	-3.2	-36.5
2.06	-1.14	-3.6	-37.5
2.065	-1.16	-4.0	-59.6
2.07	-1.17	-4.1	-45.9
2.075	-1.19	-4.2	-38.0
2.08	-1.20	-4.5	-53.5
2.085	-1.22	-4.9	-45.0
2.09	-1.24	-5.2	-24.2
2.095	-1.26	-5.4	-43.1
2.1	-1.28	-5.5	-65.7
2.105	-1.30	-5.5	-57.9
2.11	-1.33	-5.5	-62.4
2.115	-1.35	-5.6	-89.4
2.12	-1.37	-5.4	-94.5
2.125	-1.39	-5.0	-89.8
2.13	-1.41	-5.0	-103.4
2.135	-1.43	-4.9	-101.4
2.14	-1.44	-4.7	-92.5
2.145	-1.46	-4.9	-104.0
2.15	-1.48	-5.2	-106.1
2.155	-1.50	-5.2	-95.5
2.16	-1.52	-5.0	-96.7
2.165	-1.53	-4.7	-115.1
2.17	-1.55	-4.3	-113.9
2.175	-1.56	-4.0	-100.8
2.18	-1.58	-4.0	-118.3
2.185	-1.59	-4.1	-117.5
2.19	-1.60	-4.2	-112.9
2.195	-1.62	-4.4	-140.4
2.2	-1.63	-4.4	-135.8
2.205	-1.65	-4.2	-86.8
2.21	-1.66	-4.1	-29.3
2.215	-1.67	-4.2	59.3
2.22	-1.69	-4.0	152.1
2.225	-1.70	-3.8	59.5
2.23	-1.71	-3.8	-135.7
2.235	-1.72	-4.0	-123.2
2.24	-1.73	-4.0	-147.9
2.245	-1.74	-4.1	-387.5
2.25	-1.76	-4.0	-493.8
2.255	-1.77	-3.7	-372.0
2.26	-1.78	-3.3	-240.6
2.265	-1.79	-3.2	-201.7
2.27	-1.79	-3.0	-179.7
2.275	-1.80	-2.8	-139.7
2.28	-1.80	-2.7	-119.2
2.285	-1.81	-2.7	-114.1
2.29	-1.81	-2.6	-100.9
2.295	-1.82	-2.8	-93.6
2.3	-1.83	-2.9	-93.5
2.305	-1.83	-2.7	-85.4
2.31	-1.84	-2.5	-78.6
2.315	-1.84	-2.4	-79.0
2.32	-1.84	-2.2	-66.8
2.325	-1.84	-2.0	-55.2
2.33	-1.85	-2.2	-68.9
2.335	-1.85	-2.7	-70.6
2.34	-1.86	-3.1	-53.6
2.345	-1.86	-3.6	-55.1
2.35	-1.88	-3.8	-57.0
2.355	-1.89	-3.6	-40.6
2.36	-1.89	-3.2	-43.0
2.365	-1.90	-3.0	-61.1
2.37	-1.91	-2.9	-46.0
2.375	-1.91	-2.7	-24.9
2.38	-1.92	-2.6	-42.0
2.385	-1.92	-2.5	-52.5
2.39	-1.92	-2.5	-31.6
2.395	-1.93	-2.8	-23.6
2.4	-1.93	-2.9	-26.8
2.405	-1.94	-2.7	-14.8
2.41	-1.94	-2.4	-6.2
2.415	-1.95	-2.2	-11.5
2.42	-1.95	-1.9	-6.2
2.425	-1.95	-1.4	2.1
2.43	-1.94	-1.4	-1.9
2.435	-1.94	-1.5	5.6
2.44	-1.94	-1.0	23.5
2.445	-1.93	0.4	24.3
2.45	-1.92	2.4	20.5
2.455	-1.89	5.0	29.6
2.46	-1.85	7.8	28.7
2.465	-1.79	10.5	10.8
2.47	-1.73	13.3	7.8
2.475	-1.65	15.9	9.9
2.48	-1.55	17.9	-9.6
2.485	-1.45	19.5	-25.1
2.49	-1.35	20.6	-23.9
2.495	-1.24	20.9	-31.9
2.5	-1.13	20.3	-47.6
2.505	-1.02	19.3	-37.8
2.51	-0.93	17.8	-36.8
2.515	-0.84	15.8	-61.6
2.52	-0.76	13.6	-64.7
2.525	-0.70	11.2	-46.1
2.53	-0.64	8.6	-43.6
2.535	-0.60	6.3	-53.3
2.54	-0.57	4.5	-46.7
2.545	-0.55	2.6	-50.1
2.55	-0.54	0.7	-62.0
2.555	-0.54	-0.8	-46.1
2.56	-0.55	-2.2	-34.0
2.565	-0.56	-3.5	-47.2
2.57	-0.58	-4.6	-45.2
2.575	-0.60	-5.4	-33.8
2.58	-0.62	-6.1	-41.1
2.585	-0.65	-6.6	-41.5
2.59	-0.68	-6.9	-30.3
2.595	-0.72	-7.3	-34.8
2.6	-0.75	-7.7	-42.3
2.605	-0.79	-7.5	-31.7
2.61	-0.82	-7.1	-26.5
2.615	-0.85	-6.9	-35.8
2.62	-0.88	-6.7	-28.8
2.625	-0.91	-6.6	-13.5
2.63	-0.94	-6.7	-27.2
2.635	-0.97	-6.7	-30.7
2.64	-1.00	-6.4	-16.5
2.645	-1.02	-6.1	-19.4
2.65	-1.05	-6.2	-15.8
2.655	-1.07	-6.5	-6.0
2.66	-1.10	-7.1	-10.2
2.665	-1.14	-7.9	-19.8
2.67	-1.17	-8.4	-14.7
2.675	-1.21	-8.5	-5.9
2.68	-1.25	-8.7	-7.9
2.685	-1.28	-8.7	-3.1
2.69	-1.32	-8.3	3.9
2.695	-1.35	-7.7	-2.8
2.7	-1.39	-6.9	-7.4
2.705	-1.41	-6.0	1.7
2.71	-1.43	-5.4	3.3
2.715	-1.45	-5.2	-1.5
2.72	-1.47	-5.0	11.6
2.725	-1.49	-4.5	17.8
2.73	-1.50	-3.9	1.2
2.735	-1.51	-3.3	-3.3
2.74	-1.52	-2.5	16.9
2.745	-1.53	-1.8	17.0
2.75	-1.53	-1.5	-1.3
2.755	-1.53	-1.1	5.1
2.76	-1.52	-0.8	13.1
2.765	-1.52	-0.6	9.0
2.77	-1.51	-0.4	7.8
2.775	-1.51	-0.3	16.2
2.78	-1.50	-0.6	21.1
2.785	-1.50	-0.5	13.6
2.79	-1.50	-0.0	17.1
2.795	-1.49	0.4	17.0
2.8	-1.48	0.4	8.0
2.805	-1.47	0.3	15.1
2.81	-1.46	-0.0	20.7
2.815	-1.46	-0.5	13.5
2.82	-1.45	-0.8	15.4
2.825	-1.45	-0.9	22.2
2.83	-1.45	-1.1	19.4
2.835	-1.45	-1.1	18.3
2.84	-1.45	-1.1	18.7
2.845	-1.45	-1.3	26.1
2.85	-1.45	-1.8	41.3
2.855	-1.45	-1.9	54.4
2.86	-1.45	-2.0	51.0
2.865	-1.46	-2.5	30.3
2.87	-1.47	-3.1	35.1
2.875	-1.48	-3.6	58.1
2.88	-1.49	-3.9	78.8
2.885	-1.50	-3.9	94.0
2.89	-1.51	-3.7	92.6
2.895	-1.52	-3.8	82.3
2.9	-1.54	-4.2	80.4
2.905	-1.55	-4.4	91.6
2.91	-1.57	-4.4	91.6
2.915	-1.58	-4.4	84.6
2.92	-1.60	-4.3	90.3
2.925	-1.61	-4.1	89.3
2.93	-1.62	-4.1	74.1
2.935	-1.64	-4.1	66.5
2.94	-1.65	-3.9	68.2
2.945	-1.66	-3.9	50.2
2.95	-1.67	-3.9	30.9
2.955	-1.69	-3.9	44.6
2.96	-1.70	-3.8	52.9
2.965	-1.71	-3.8	42.8
2.97	-1.72	-3.6	45.5
2.975	-1.73	-3.5	46.6
2.98	-1.74	-3.7	39.8
2.985	-1.75	-3.8	40.7
2.99	-1.76	-3.7	40.5
2.995	-1.77	-3.8	36.1
3	-1.78	-4.1	36.4
3.005	-1.79	-4.0	48.4
3.01	-1.80	-3.8	49.7
3.015	-1.81	-3.6	28.5
3.02	-1.82	-3.3	15.4
3.025	-1.83	-3.1	20.6
3.03	-1.84	-3.2	38.3
3.035	-1.85	-3.3	69.3
3.04	-1.85	-3.3	157.6
3.045	-1.86	-3.2	284.5
3.05	-1.87	-3.1	303.2
3.055	-1.87	-2.7	146.0
3.06	-1.88	-2.3	41.9
3.065	-1.88	-2.1	77.2
3.07	-1.88	-2.0	-61.9
3.075	-1.88	-2.1	-309.7
3.08	-1.89	-2.6	-316.7
3.085	-1.89	-2.9	-156.3
3.09	-1.90	-2.9	-55.5
3.095	-1.90	-2.7	-30.5
3.1	-1.91	-2.3	-10.5
3.105	-1.91	-1.9	31.7
3.11	-1.91	-1.7	55.0
3.115	-1.91	-2.0	52.3
3.12	-1.91	-2.2	68.2
3.125	-1.92	-2.2	78.8
3.13	-1.92	-2.3	71.3
3.135	-1.92	-2.1	72.6
3.14	-1.92	-1.8	86.3
3.145	-1.92	-1.7	88.8
3.15	-1.92	-1.7	77.2
3.155	-1.92	-1.7	91.6
3.16	-1.92	-1.8	103.5
3.165	-1.92	-2.3	90.9
3.17	-1.92	-2.7	98.3
3.175	-1.93	-2.8	110.3
3.18	-1.93	-2.9	104.6
3.185	-1.94	-2.8	102.5
3.19	-1.94	-2.5	108.8
3.195	-1.95	-2.5	109.0
3.2	-1.95	-2.8	112.5
3.205	-1.96	-2.7	123.2
3.21	-1.96	-2.6	120.8
3.215	-1.97	-2.7	118.8
3.22	-1.97	-2.7	135.3
3.225	-1.97	-2.5	148.3
3.23	-1.98	-2.4	141.2
3.235	-1.98	-2.3	139.3
3.24	-1.98	-2.2	149.9
3.245	-1.98	-2.3	150.2
3.25	-1.99	-2.5	147.9
3.255	-1.99	-2.3	161.5
3.26	-1.99	-1.6	173.9
3.265	-1.99	-0.5	163.6
3.27	-1.98	1.3	164.6
3.275	-1.96	3.7	179.9
3.28	-1.92	6.2	180.1
3.285	-1.87	9.0	180.8
3.29	-1.81	12.1	185.0
3.295	-1.74	15.0	178.8
3.3	-1.65	17.4	168.6
3.305	-1.55	19.8	162.9
3.31	-1.44	21.7	155.4
3.315	-1.32	22.8	138.7
3.32	-1.20	23.3	129.1
3.325	-1.08	23.0	126.4
3.33	-0.96	21.6	110.7
3.335	-0.85	19.7	103.7
3.34	-0.76	17.6	113.1
3.345	-0.67	15.1	107.4
3.35	-0.60	12.5	88.8
3.355	-0.54	10.2	87.1
3.36	-0.49	8.3	94.2
3.365	-0.45	6.4	93.2
3.37	-0.42	4.8	92.5
3.375	-0.40	3.2	99.1
3.38	-0.39	1.5	104.8
3.385	-0.38	0.1	101.4
3.39	-0.38	-0.9	104.7
3.395	-0.39	-1.9	103.8
3.4	-0.40	-3.1	100.4
3.405	-0.41	-4.4	103.7
3.41	-0.44	-5.8	98.9
3.415	-0.47	-6.6	94.4
3.42	-0.50	-6.8	98.4
3.425	-0.53	-6.9	109.4
3.43	-0.56	-6.9	105.9
3.435	-0.59	-6.6	100.5
3.44	-0.62	-5.8	111.5
3.445	-0.65	-5.1	103.7
3.45	-0.67	-4.9	92.3
3.455	-0.69	-4.9	102.2
3.46	-0.71	-5.1	105.1
3.465	-0.73	-5.2	94.7
3.47	-0.76	-5.2	96.3
3.475	-0.78	-5.1	103.6
3.48	-0.80	-5.4	103.6
3.485	-0.82	-5.6	108.4
3.49	-0.85	-5.8	110.9
3.495	-0.88	-6.2	103.3
3.5	-0.90	-6.8	98.4
3.505	-0.93	-7.2	109.3
3.51	-0.97	-7.6	112.6
3.515	-1.00	-7.9	105.5
3.52	-1.04	-7.6	113.0
3.525	-1.07	-7.0	112.0
3.53	-1.10	-6.3	97.5
3.535	-1.12	-5.7	99.3
3.54	-1.14	-5.1	118.1
3.545	-1.16	-4.5	113.8
3.55	-1.18	-4.0	99.2
3.555	-1.19	-3.3	108.3
3.56	-1.20	-2.9	117.7
3.565	-1.21	-2.6	117.6
3.57	-1.21	-2.1	110.5
3.575	-1.22	-1.6	110.6
3.58	-1.22	-1.3	111.9
3.585	-1.22	-1.1	115.0
3.59	-1.22	-0.7	123.6
3.595	-1.22	-0.4	115.5
3.6	-1.21	-0.2	105.7
3.605	-1.21	0.1	109.9
3.61	-1.20	0.3	118.8
3.615	-1.19	0.5	119.4
3.62	-1.18	0.7	116.9
3.625	-1.17	0.8	117.0
3.63	-1.17	0.5	109.8
3.635	-1.16	0.2	104.9
3.64	-1.15	0.3	108.3
3.645	-1.15	0.3	110.1
3.65	-1.14	-0.1	106.9
3.655	-1.14	-0.4	105.5
3.66	-1.13	-0.7	107.3
3.665	-1.13	-0.9	96.3
3.67	-1.13	-0.9	92.5
3.675	-1.13	-0.9	104.9
3.68	-1.13	-1.3	104.8
3.685	-1.13	-1.7	104.8
3.69	-1.14	-2.0	114.4
3.695	-1.14	-2.3	110.4
3.7	-1.15	-2.6	102.3
3.705	-1.16	-2.8	105.6
3.71	-1.17	-3.1	106.2
3.715	-1.18	-3.4	102.2
3.72	-1.19	-3.5	103.9
3.725	-1.20	-3.4	102.7
3.73	-1.21	-3.6	90.5
3.735	-1.23	-3.9	87.3
3.74	-1.24	-4.0	95.0
3.745	-1.26	-4.3	110.3
3.75	-1.27	-4.4	130.5
3.755	-1.29	-4.2	130.7
3.76	-1.30	-3.9	115.6
3.765	-1.32	-3.8	107.2
3.77	-1.33	-3.7	120.5
3.775	-1.34	-3.6	149.5
3.78	-1.35	-3.9	159.2
3.785	-1.37	-4.1	151.8
3.79	-1.38	-4.2	151.0
3.795	-1.40	-4.1	149.8
3.8	-1.41	-3.9	140.9
3.805	-1.42	-3.5	142.6
3.81	-1.43	-3.2	147.8
3.815	-1.44	-3.1	146.2
3.82	-1.45	-2.9	141.3
3.825	-1.46	-2.7	134.8
3.83	-1.46	-2.8	120.9
3.835	-1.47	-2.9	106.8
3.84	-1.48	-3.0	108.3
3.845	-1.49	-3.2	92.2
3.85	-1.50	-3.3	77.8
3.855	-1.51	-3.2	85.2
3.86	-1.52	-3.3	83.5
3.865	-1.53	-3.7	78.1
3.87	-1.54	-4.0	76.8
3.875	-1.55	-3.8	76.8
3.88	-1.56	-3.5	74.0
3.885	-1.57	-3.1	72.4
3.89	-1.58	-2.6	79.2
3.895	-1.58	-2.4	72.2
3.9	-1.59	-2.3	61.0
3.905	-1.59	-2.3	62.8
3.91	-1.60	-2.4	59.5
3.915	-1.60	-2.6	59.4
3.92	-1.61	-2.6	48.8
3.925	-1.61	-2.4	45.3
3.93	-1.62	-2.3	68.5
3.935	-1.62	-2.3	133.1
3.94	-1.63	-2.1	261.9
3.945	-1.63	-1.9	342.6
3.95	-1.63	-1.5	233.5
3.955	-1.63	-1.2	66.9
3.96	-1.63	-1.3	81.5
3.965	-1.63	-1.8	43.8
3.97	-1.63	-2.1	-217.3
3.975	-1.63	-2.0	-334.6
3.98	-1.64	-2.0	-204.1
3.985	-1.64	-1.8	-80.5
3.99	-1.64	-1.6	-34.0
3.995	-1.64	-1.7	-14.6
4	-1.64	-1.9	13.6
4.005	-1.64	-1.8	48.5
4.01	-1.64	-1.7	54.1
4.015	-1.65	-1.7	52.0
4.02	-1.65	-1.8	64.0
4.025	-1.65	-1.9	73.5
4.03	-1.65	-2.1	72.8
4.035	-1.65	-2.0	79.1
4.04	-1.66	-1.8	88.8
4.045	-1.66	-1.6	81.8
4.05	-1.66	-1.6	84.2
4.055	-1.66	-1.6	100.0
4.06	-1.66	-1.7	100.8
4.065	-1.66	-2.1	88.9
4.07	-1.66	-2.5	91.4
4.075	-1.67	-2.6	93.6
4.08	-1.67	-2.9	84.4
4.085	-1.68	-3.2	93.4
4.09	-1.69	-3.2	100.5
4.095	-1.70	-3.0	101.1
4.1	-1.71	-2.7	107.8
4.105	-1.71	-2.3	111.3
4.11	-1.71	-2.2	111.4
4.115	-1.72	-2.4	109.6
4.12	-1.72	-2.5	116.7
4.125	-1.73	-2.5	120.0
4.13	-1.73	-2.5	118.4
4.135	-1.74	-2.5	126.4
4.14	-1.74	-2.3	142.8
4.145	-1.74	-2.1	146.0
4.15	-1.74	-1.8	131.9
4.155	-1.74	-1.1	145.3
4.16	-1.74	0.0	163.5
4.165	-1.73	1.4	157.5
4.17	-1.71	3.4	155.2
4.175	-1.68	6.0	165.4
4.18	-1.63	8.9	174.3
4.185	-1.57	12.3	165.8
4.19	-1.49	15.9	159.1
4.195	-1.40	19.0	153.9
4.2	-1.29	21.3	148.8
4.205	-1.17	23.2	146.6
4.21	-1.05	24.6	132.4
4.215	-0.92	25.3	114.3
4.22	-0.79	25.3	101.6
4.225	-0.66	24.7	92.6
4.23	-0.54	23.2	86.3
4.235	-0.43	21.2	84.4
4.24	-0.32	19.1	76.4
4.245	-0.23	16.8	59.7
4.25	-0.15	14.4	58.6
4.255	-0.09	12.4	66.9
4.26	-0.03	10.5	59.6
4.265	0.02	8.5	54.7
4.27	0.06	6.7	59.8
4.275	0.08	4.8	60.9
4.28	0.10	2.9	62.1
4.285	0.11	1.3	59.8
4.29	0.12	-0.3	55.5
4.295	0.11	-1.8	53.9
4.3	0.10	-3.1	54.4
4.305	0.08	-4.2	59.4
4.31	0.05	-5.1	56.2
4.315	0.03	-5.8	49.0
4.32	-0.00	-5.8	54.8
4.325	-0.03	-5.3	57.3
4.33	-0.06	-4.9	51.5
4.335	-0.08	-4.6	55.3
4.34	-0.10	-4.4	58.3
4.345	-0.12	-4.3	51.6
4.35	-0.14	-4.4	54.3
4.355	-0.16	-4.3	65.4
4.36	-0.19	-4.4	61.6
4.365	-0.21	-4.8	69.5
4.37	-0.23	-5.1	81.6
4.375	-0.26	-5.1	64.1
4.38	-0.28	-5.1	50.9
4.385	-0.30	-5.0	57.9
4.39	-0.33	-5.0	66.6
4.395	-0.35	-5.4	66.3
4.4	-0.38	-6.0	60.7
4.405	-0.41	-6.3	60.0
4.41	-0.44	-6.4	61.5
4.415	-0.47	-6.6	61.3
4.42	-0.50	-6.4	65.8
4.425	-0.53	-6.0	70.4
4.43	-0.55	-5.7	65.3
4.435	-0.58	-5.6	62.4
4.44	-0.60	-5.2	70.7
4.445	-0.63	-4.9	69.7
4.45	-0.65	-4.3	63.4
4.455	-0.66	-3.5	62.0
4.46	-0.67	-2.6	66.4
4.465	-0.68	-2.0	71.6
4.47	-0.69	-1.4	68.2
4.475	-0.69	-0.8	69.0
4.48	-0.69	-0.5	72.6
4.485	-0.69	-0.2	68.6
4.49	-0.69	0.3	63.7
4.495	-0.68	0.6	61.8
4.5	-0.67	0.6	66.1
4.505	-0.67	0.7	72.5
4.51	-0.66	0.9	64.3
4.515	-0.65	1.0	60.5
4.52	-0.64	1.2	70.0
4.525	-0.63	1.5	69.9
4.53	-0.62	1.6	62.5
4.535	-0.61	1.8	64.8
4.54	-0.60	2.0	66.6
4.545	-0.59	1.9	60.4
4.55	-0.58	1.6	63.8
4.555	-0.57	1.3	67.0
4.56	-0.56	1.0	65.1
4.565	-0.55	0.6	60.4
4.57	-0.55	0.4	56.9
4.575	-0.54	0.4	58.1
4.58	-0.54	0.1	58.3
4.585	-0.54	-0.4	66.6
4.59	-0.54	-0.6	68.8
4.595	-0.54	-0.9	64.8
4.6	-0.54	-1.0	62.0
4.605	-0.54	-1.1	60.5
4.61	-0.55	-1.3	61.2
4.615	-0.55	-1.8	54.9
4.62	-0.56	-2.0	56.6
4.625	-0.57	-1.9	55.5
4.63	-0.57	-1.9	52.5
4.635	-0.58	-2.1	78.5
4.64	-0.59	-2.1	105.4
4.645	-0.60	-2.4	105.0
4.65	-0.61	-2.8	79.2
4.655	-0.62	-2.9	68.3
4.66	-0.63	-3.0	85.6
4.665	-0.64	-2.9	104.3
4.67	-0.65	-2.6	120.8
4.675	-0.66	-2.2	113.9
4.68	-0.67	-2.4	93.7
4.685	-0.68	-2.7	97.3
4.69	-0.69	-2.8	102.1
4.695	-0.70	-2.9	95.1
4.7	-0.71	-2.9	101.9
4.705	-0.72	-2.7	105.4
4.71	-0.73	-2.6	97.9
4.715	-0.74	-2.7	90.8
4.72	-0.75	-2.6	81.0
4.725	-0.76	-2.2	75.5
4.73	-0.77	-2.1	56.3
4.735	-0.78	-2.2	37.1
4.74	-0.78	-2.4	41.0
4.745	-0.79	-2.7	36.7
4.75	-0.80	-2.8	40.0
4.755	-0.81	-2.5	54.6
4.76	-0.82	-2.3	43.1
4.765	-0.83	-2.4	28.9
4.77	-0.84	-2.6	33.3
4.775	-0.85	-2.7	34.6
4.78	-0.86	-2.8	29.4
4.785	-0.87	-2.7	29.5
4.79	-0.88	-2.4	34.3
4.795	-0.88	-2.2	31.4
4.8	-0.89	-2.1	23.7
4.805	-0.89	-1.8	13.4
4.81	-0.90	-1.6	4.9
4.815	-0.90	-1.5	29.2
4.82	-0.91	-1.2	68.1
4.825	-0.91	-1.0	131.9
4.83	-0.91	-1.1	260.9
4.835	-0.91	-1.2	322.0
4.84	-0.91	-1.0	148.5
4.845	-0.91	-0.7	-13.0
4.85	-0.91	-0.5	-4.0
4.855	-0.91	-0.2	-148.3
4.86	-0.90	-0.1	-420.7
4.865	-0.90	-0.3	-462.8
4.87	-0.90	-0.3	-269.9
4.875	-0.90	-0.3	-115.7
4.88	-0.89	-0.5	-71.1
4.885	-0.89	-0.8	-39.7
4.89	-0.89	-0.7	-7.9
4.895	-0.89	-0.7	7.4
4.9	-0.89	-0.7	12.0
4.905	-0.89	-0.5	29.2
4.91	-0.89	-0.4	44.2
4.915	-0.89	-0.5	36.0
4.92	-0.89	-0.8	30.0
4.925	-0.89	-1.1	35.7
4.93	-0.89	-1.5	45.1
4.935	-0.89	-1.6	53.9
4.94	-0.90	-1.4	61.1
4.945	-0.90	-1.3	69.7
4.95	-0.90	-1.5	73.9
4.955	-0.90	-1.7	71.2
4.96	-0.91	-2.1	69.9
4.965	-0.92	-2.6	68.1
4.97	-0.93	-2.8	73.1
4.975	-0.94	-2.8	76.4
4.98	-0.95	-2.8	68.3
4.985	-0.96	-2.6	74.6
4.99	-0.96	-2.1	85.1
4.995	-0.97	-1.7	78.4
5	-0.97	-1.5	79.2
5.005	-0.97	-1.3	91.7
5.01	-0.97	-1.4	94.5
5.015	-0.98	-1.7	93.3
5.02	-0.98	-1.9	89.3
5.025	-0.99	-2.0	89.2
5.03	-0.99	-2.2	107.0
5.035	-1.00	-2.1	120.4
5.04	-1.01	-1.5	120.3
5.045	-1.01	-0.8	116.8
5.05	-1.00	-0.2	111.8
5.055	-1.00	0.4	116.6
5.06	-0.99	1.6	126.1
5.065	-0.97	3.5	122.3
5.07	-0.94	6.4	123.3
5.075	-0.90	10.0	126.5
5.08	-0.84	13.4	114.2
5.085	-0.76	16.6	107.2
5.09	-0.66	19.7	102.7
5.095	-0.56	22.3	88.5
5.1	-0.44	24.2	71.8
5.105	-0.31	25.6	65.7
5.11	-0.18	26.3	56.9
5.115	-0.05	26.5	39.4
5.12	0.08	26.2	30.1
5.125	0.21	25.4	30.1
5.13	0.34	23.8	23.6
5.135	0.45	21.8	12.9
5.14	0.55	19.6	15.9
5.145	0.64	17.2	19.0
5.15	0.71	14.6	12.7
5.155	0.78	12.5	1.8
5.16	0.83	10.6	-1.9
5.165	0.88	9.0	8.2
5.17	0.91	7.6	11.7
5.175	0.94	6.2	3.7
5.18	0.97	4.5	0.9
5.185	0.98	2.9	6.5
5.19	0.99	1.6	10.5
5.195	0.99	0.4	11.1
5.2	0.98	-0.7	12.1
5.205	0.97	-1.5	5.6
5.21	0.96	-2.1	-0.1
5.215	0.94	-2.6	5.0
5.22	0.92	-2.9	20.0
5.225	0.91	-3.0	20.2
5.23	0.89	-3.2	10.6
5.235	0.86	-3.3	13.7
5.24	0.84	-3.3	15.9
5.245	0.82	-3.5	16.4
5.25	0.80	-4.0	18.5
5.255	0.78	-4.2	23.4
5.26	0.75	-4.3	26.9
5.265	0.73	-4.5	18.8
5.27	0.70	-4.9	10.3
5.275	0.67	-5.3	17.3
5.28	0.64	-5.8	22.5
5.285	0.61	-6.1	22.1
5.29	0.58	-6.0	25.8
5.295	0.54	-5.9	20.6
5.3	0.51	-6.2	16.8
5.305	0.48	-6.5	21.3
5.31	0.44	-6.7	24.4
5.315	0.41	-6.9	24.0
5.32	0.37	-6.6	28.4
5.325	0.34	-5.8	23.8
5.33	0.31	-5.1	7.0
5.335	0.28	-4.4	11.6
5.34	0.26	-3.7	19.5
5.345	0.24	-3.3	16.2
5.35	0.23	-2.9	12.9
5.355	0.21	-2.3	20.8
5.36	0.20	-1.7	27.7
5.365	0.19	-1.2	18.9
5.37	0.19	-0.7	22.2
5.375	0.18	-0.2	24.4
5.38	0.18	-0.1	18.8
5.385	0.18	-0.0	22.3
5.39	0.18	0.2	21.7
5.395	0.18	0.3	14.6
5.4	0.18	0.3	12.2
5.405	0.18	0.6	13.4
5.41	0.19	1.1	11.2
5.415	0.19	1.7	8.4
5.42	0.20	2.4	15.9
5.425	0.22	3.0	19.8
5.43	0.23	3.0	15.0
5.435	0.24	2.7	11.8
5.44	0.25	2.4	9.1
5.445	0.26	1.9	1.6
5.45	0.27	1.4	-5.5
5.455	0.28	1.2	-1.0
5.46	0.28	1.1	2.5
5.465	0.28	0.6	11.9
5.47	0.28	0.1	29.1
5.475	0.28	-0.3	36.3
5.48	0.28	-0.7	24.4
5.485	0.27	-0.7	5.6
5.49	0.27	-0.3	4.2
5.495	0.27	0.1	24.6
5.5	0.27	0.2	39.8
5.505	0.27	0.2	44.9
5.51	0.27	0.0	51.3
5.515	0.27	-0.5	47.9
5.52	0.26	-0.9	48.0
5.525	0.25	-1.4	49.0
5.53	0.24	-1.9	48.6
5.535	0.23	-2.3	50.2
5.54	0.22	-2.3	42.6
5.545	0.21	-2.4	36.2
5.55	0.19	-2.6	30.5
5.555	0.18	-2.7	24.5
5.56	0.16	-2.7	15.7
5.565	0.15	-2.8	1.7
5.57	0.14	-2.7	0.7
5.575	0.12	-2.6	0.9
5.58	0.11	-2.8	-6.1
5.585	0.09	-3.0	0.8
5.59	0.08	-3.1	12.1
5.595	0.06	-3.2	-4.8
5.6	0.04	-3.4	-25.7
5.605	0.03	-3.4	-10.7
5.61	0.01	-3.3	8.5
5.615	-0.01	-3.5	3.8
5.62	-0.02	-3.6	-10.1
5.625	-0.04	-3.7	-15.7
5.63	-0.06	-4.0	-12.7
5.635	-0.08	-4.4	-12.1
5.64	-0.10	-4.6	-19.1
5.645	-0.13	-4.8	-2.7
5.65	-0.15	-5.0	33.5
5.655	-0.18	-4.8	81.8
5.66	-0.20	-4.3	177.9
5.665	-0.22	-4.1	265.8
5.67	-0.24	-4.0	169.5
5.675	-0.26	-3.9	-46.4
5.68	-0.27	-4.0	-69.6
5.685	-0.29	-3.9	-92.2
5.69	-0.31	-3.5	-328.1
5.695	-0.32	-3.1	-438.6
5.7	-0.34	-2.7	-305.4
5.705	-0.35	-2.4	-147.2
5.71	-0.36	-2.2	-85.6
5.715	-0.37	-2.2	-71.9
5.72	-0.38	-2.3	-37.8
5.725	-0.39	-2.4	-11.8
5.73	-0.40	-2.9	-9.4
5.735	-0.41	-3.4	-0.3
5.74	-0.43	-3.5	11.8
5.745	-0.44	-3.4	18.2
5.75	-0.46	-3.0	25.1
5.755	-0.47	-2.3	30.6
5.76	-0.48	-1.7	37.3
5.765	-0.48	-1.5	43.0
5.77	-0.49	-1.5	45.5
5.775	-0.49	-1.7	44.0
5.78	-0.50	-2.2	42.7
5.785	-0.51	-3.0	48.4
5.79	-0.52	-3.5	49.2
5.795	-0.54	-3.8	48.5
5.8	-0.56	-3.9	49.7
5.805	-0.57	-3.4	50.8
5.81	-0.59	-3.0	56.6
5.815	-0.60	-2.6	61.1
5.82	-0.61	-2.3	63.5
5.825	-0.61	-2.2	61.6
5.83	-0.62	-2.8	58.8
5.835	-0.64	-3.5	67.2
5.84	-0.65	-3.9	75.8
5.845	-0.67	-4.1	76.2
5.85	-0.69	-4.2	75.4
5.855	-0.70	-4.0	78.1
5.86	-0.72	-3.9	89.6
5.865	-0.74	-3.9	96.8
5.87	-0.75	-3.6	98.5
5.875	-0.77	-3.0	106.5
5.88	-0.78	-2.3	109.2
5.885	-0.78	-1.4	110.5
5.89	-0.78	-0.1	116.3
5.895	-0.77	1.7	115.2
5.9	-0.76	3.9	114.1
5.905	-0.73	6.7	114.8
5.91	-0.68	10.0	108.1
5.915	-0.62	13.3	94.4
5.92	-0.55	16.4	88.1
5.925	-0.45	19.1	90.2
5.93	-0.35	21.2	74.3
5.935	-0.24	22.9	53.0
5.94	-0.12	24.2	44.2
5.945	0.00	24.8	38.9
5.95	0.13	24.6	28.1
5.955	0.25	24.1	17.1
5.96	0.36	23.1	14.5
5.965	0.47	21.6	11.3
5.97	0.57	19.9	11.6
5.975	0.67	18.2	8.6
5.98	0.75	16.2	8.3
5.985	0.82	14.1	11.5
5.99	0.88	12.3	11.7
5.995	0.94	10.3	9.3
6	0.98	8.3	8.7
6.005	1.01	6.8	4.6
6.01	1.04	5.4	0.1
6.015	1.06	4.1	8.8
6.02	1.07	3.0	5.6
6.025	1.08	1.9	3.4
6.03	1.08	0.5	8.5
6.035	1.07	-1.1	8.1
6.04	1.06	-2.4	6.6
6.045	1.04	-3.5	10.3
6.05	1.01	-4.4	13.5
6.055	0.98	-4.7	9.6
6.06	0.96	-4.7	9.0
6.065	0.93	-4.8	9.5
6.07	0.90	-4.9	14.0
6.075	0.87	-4.8	11.8
6.08	0.84	-5.2	10.3
6.085	0.81	-5.8	17.2
6.09	0.78	-6.2	12.8
6.095	0.74	-6.6	17.3
6.1	0.70	-7.0	26.9
6.105	0.67	-7.0	22.8
6.11	0.63	-7.0	17.7
6.115	0.59	-7.4	14.3
6.12	0.55	-7.9	18.5
6.125	0.51	-8.4	13.3
6.13	0.46	-9.0	7.5
6.135	0.41	-9.2	17.5
6.14	0.36	-9.0	17.5
6.145	0.32	-8.8	19.1
6.15	0.27	-8.6	21.7
6.155	0.23	-8.1	13.6
6.16	0.19	-7.6	9.1
6.165	0.15	-7.2	10.8
6.17	0.12	-6.7	11.8
6.175	0.09	-6.0	18.4
6.18	0.06	-5.5	22.8
6.185	0.03	-5.0	20.9
6.19	0.01	-4.2	17.6
6.195	-0.01	-3.6	2.0
6.2	-0.03	-3.2	6.3
6.205	-0.04	-2.6	26.5
6.21	-0.06	-1.9	18.3
6.215	-0.06	-1.4	9.3
6.22	-0.07	-1.0	12.7
6.225	-0.07	-0.7	12.7
6.23	-0.07	-0.5	12.5
6.235	-0.08	-0.2	9.9
6.24	-0.08	0.3	13.3
6.245	-0.07	0.6	14.5
6.25	-0.07	0.8	5.1
6.255	-0.07	1.1	2.8
6.26	-0.06	1.4	4.4
6.265	-0.05	1.3	1.2
6.27	-0.04	1.2	2.9
6.275	-0.04	1.1	13.9
6.28	-0.03	0.8	28.5
6.285	-0.03	0.5	29.8
6.29	-0.03	0.4	17.2
6.295	-0.03	0.2	14.2
6.3	-0.03	0.2	27.1
6.305	-0.02	0.5	49.3
6.31	-0.02	0.7	53.6
6.315	-0.02	-0.0	43.4
6.32	-0.02	-1.1	44.8
6.325	-0.03	-1.9	54.8
6.33	-0.04	-2.5	56.3
6.335	-0.05	-2.8	51.8
6.34	-0.07	-2.9	58.4
6.345	-0.08	-3.2	61.0
6.35	-0.10	-3.6	54.9
6.355	-0.12	-3.7	45.4
6.36	-0.13	-3.7	28.7
6.365	-0.15	-3.9	17.8
6.37	-0.17	-3.8	13.0
6.375	-0.19	-3.7	7.0
6.38	-0.21	-3.6	-5.4
6.385	-0.22	-3.5	-13.0
6.39	-0.24	-3.5	-6.7
6.395	-0.26	-3.7	1.0
6.4	-0.27	-3.8	5.8
6.405	-0.29	-3.8	3.0
6.41	-0.31	-4.1	-8.0
6.415	-0.33	-4.7	-13.5
6.42	-0.35	-5.1	-13.0
6.425	-0.38	-5.1	-12.0
6.43	-0.40	-5.0	-9.3
6.435	-0.42	-4.6	-11.7
6.44	-0.44	-3.9	-27.0
6.445	-0.46	-3.7	-35.4
6.45	-0.48	-4.2	-20.9
6.455	-0.50	-4.6	6.9
6.46	-0.52	-4.9	38.8
6.465	-0.54	-5.2	104.8
6.47	-0.57	-5.3	219.6
6.475	-0.59	-5.3	257.0
6.48	-0.61	-5.3	82.7
6.485	-0.64	-5.1	-60.4
6.49	-0.66	-4.5	-21.2
6.495	-0.68	-3.8	-165.3
6.5	-0.69	-3.4	-422.4
6.505	-0.70	-3.2	-406.4
6.51	-0.72	-3.4	-235.9
6.515	-0.73	-4.0	-135.7
6.52	-0.75	-4.5	-103.1
6.525	-0.77	-4.5	-77.6
6.53	-0.79	-4.5	-43.5
6.535	-0.81	-4.3	-27.7
6.54	-0.82	-3.8	-9.4
6.545	-0.84	-3.3	17.8
6.55	-0.85	-2.9	5.6
6.555	-0.86	-2.4	-10.0
6.56	-0.86	-2.4	6.1
6.565	-0.87	-2.9	22.8
6.57	-0.89	-3.4	23.3
6.575	-0.90	-3.5	22.8
6.58	-0.91	-3.6	24.6
6.585	-0.93	-3.6	23.2
6.59	-0.94	-3.5	30.8
6.595	-0.95	-3.4	39.3
6.6	-0.96	-3.3	38.7
6.605	-0.98	-3.1	41.5
6.61	-0.99	-3.1	47.5
6.615	-1.00	-3.3	45.1
6.62	-1.01	-3.4	40.7
6.625	-1.02	-3.3	44.7
6.63	-1.03	-3.3	52.8
6.635	-1.05	-3.1	56.2
6.64	-1.06	-2.8	57.1
6.645	-1.06	-2.8	63.6
6.65	-1.07	-2.8	62.8
6.655	-1.08	-2.5	63.1
6.66	-1.09	-2.2	71.0
6.665	-1.10	-2.4	74.8
6.67	-1.10	-2.6	81.8
6.675	-1.11	-2.7	80.5
6.68	-1.12	-2.7	83.8
6.685	-1.13	-2.4	82.2
6.69	-1.13	-1.5	83.9
6.695	-1.13	-0.0	104.5
6.7	-1.12	2.0	105.3
6.705	-1.10	4.8	106.1
6.71	-1.06	8.0	109.2
6.715	-1.01	10.9	101.2
6.72	-0.94	13.9	96.8
6.725	-0.86	16.9	89.5
6.73	-0.77	19.5	78.5
6.735	-0.66	22.0	74.8
6.74	-0.54	24.7	69.5
6.745	-0.41	26.8	52.8
6.75	-0.27	28.3	28.0
6.755	-0.12	29.2	16.4
6.76	0.02	29.5	18.1
6.765	0.17	28.9	17.5
6.77	0.31	27.5	14.5
6.775	0.44	25.5	9.3
6.78	0.56	22.9	4.6
6.785	0.66	20.3	3.0
6.79	0.76	18.3	5.3
6.795	0.84	16.3	5.5
6.8	0.91	14.4	8.4
6.805	0.97	12.7	10.0
6.81	1.03	11.2	5.1
6.815	1.08	9.3	6.5
6.82	1.11	7.2	14.7
6.825	1.14	5.2	10.1
6.83	1.15	3.5	3.5
6.835	1.16	2.0	3.5
6.84	1.16	0.9	-1.1
6.845	1.16	0.0	4.3
6.85	1.15	-0.7	11.5
6.855	1.14	-1.1	6.1
6.86	1.13	-1.4	1.8
6.865	1.12	-2.3	3.8
6.87	1.10	-3.4	6.7
6.875	1.07	-4.3	13.3
6.88	1.05	-5.0	8.3
6.885	1.02	-5.2	4.7
6.89	0.98	-5.2	17.5
6.895	0.95	-5.3	18.9
6.9	0.92	-5.3	8.3
6.905	0.89	-5.1	9.3
6.91	0.86	-5.3	15.7
6.915	0.83	-6.0	10.8
6.92	0.80	-6.9	12.0
6.925	0.76	-7.5	14.0
6.93	0.71	-8.2	19.4
6.935	0.67	-8.8	30.8
6.94	0.62	-8.8	24.2
6.945	0.57	-8.5	8.0
6.95	0.53	-8.1	9.2
6.955	0.49	-7.6	16.6
6.96	0.45	-7.4	14.7
6.965	0.41	-7.5	18.6
6.97	0.37	-7.5	19.4
6.975	0.33	-7.4	12.8
6.98	0.29	-7.2	4.5
6.985	0.26	-6.7	8.6
6.99	0.23	-5.7	24.0
6.995	0.20	-4.7	20.5
7	0.18	-3.8	12.2
7.005	0.16	-3.0	13.4
7.01	0.14	-2.5	17.3
7.015	0.13	-2.4	19.9
7.02	0.12	-2.3	13.8
7.025	0.11	-2.0	12.7
7.03	0.10	-1.8	14.7
7.035	0.09	-1.5	11.8
7.04	0.08	-0.9	11.9
7.045	0.08	-0.2	11.4
7.05	0.08	0.5	11.3
7.055	0.09	1.4	9.9
7.06	0.09	2.0	4.0
7.065	0.10	1.8	5.6
7.07	0.11	1.4	12.1
7.075	0.12	1.1	5.8
7.08	0.12	0.9	-7.3
7.085	0.12	0.7	2.8
7.09	0.13	0.8	24.0
7.095	0.13	0.9	36.3
7.1	0.13	1.0	37.9
7.105	0.14	1.3	16.8
7.11	0.15	1.3	9.7
7.115	0.15	0.7	31.8
7.12	0.15	-0.1	54.2
7.125	0.15	-1.0	56.1
7.13	0.14	-2.0	48.3
7.135	0.13	-2.7	50.0
7.14	0.11	-2.9	54.7
7.145	0.10	-2.7	49.9
7.15	0.08	-2.6	50.7
7.155	0.07	-2.4	55.3
7.16	0.06	-2.6	47.8
7.165	0.04	-3.0	45.5
7.17	0.03	-3.4	36.2
7.175	0.01	-3.7	18.3
7.18	-0.01	-4.0	11.1
7.185	-0.03	-4.3	-6.7
7.19	-0.05	-4.3	-12.8
7.195	-0.07	-4.2	-3.2
7.2	-0.09	-3.9	-6.0
7.205	-0.11	-3.4	-8.6
7.21	-0.12	-3.3	-14.5
7.215	-0.14	-3.9	-13.6
7.22	-0.16	-4.6	-9.2
7.225	-0.19	-4.8	-16.9
7.23	-0.21	-4.9	-18.9
7.235	-0.23	-4.9	-17.6
7.24	-0.26	-4.7	-23.2
7.245	-0.28	-4.6	-27.8
7.25	-0.30	-4.4	-24.2
7.255	-0.32	-4.0	-21.2
7.26	-0.34	-3.5	-45.0
7.265	-0.35	-3.3	-48.8
7.27	-0.37	-3.4	-7.0
7.275	-0.38	-3.7	39.5
7.28	-0.40	-4.3	137.1
7.285	-0.42	-4.7	259.2
7.29	-0.44	-4.5	187.2
7.295	-0.46	-4.0	-14.9
7.3	-0.48	-3.8	-26.3
7.305	-0.50	-3.8	-39.0
7.31	-0.51	-4.0	-297.3
7.315	-0.53	-4.4	-460.5
7.32	-0.55	-4.6	-324.6
7.325	-0.57	-4.5	-164.4
7.33	-0.59	-4.4	-118.6
7.335	-0.61	-4.3	-92.4
7.34	-0.63	-4.0	-64.3
7.345	-0.64	-3.8	-38.7
7.35	-0.66	-3.7	-22.8
7.355	-0.68	-3.5	-23.7
7.36	-0.69	-3.2	-17.4
7.365	-0.70	-3.1	-3.6
7.37	-0.71	-2.8	-1.0
7.375	-0.72	-2.6	-2.6
7.38	-0.73	-2.6	6.2
7.385	-0.74	-2.6	11.6
7.39	-0.75	-2.3	12.4
7.395	-0.76	-2.4	22.9
7.4	-0.77	-2.9	28.3
7.405	-0.78	-3.3	19.9
7.41	-0.80	-3.7	22.6
7.415	-0.81	-4.1	28.5
7.42	-0.83	-4.1	21.6
7.425	-0.84	-3.8	23.2
7.43	-0.86	-3.4	29.3
7.435	-0.87	-3.1	34.4
7.44	-0.88	-2.8	33.4
7.445	-0.89	-2.7	29.9
7.45	-0.90	-2.9	36.5
7.455	-0.91	-2.9	40.9
7.46	-0.92	-2.8	42.9
7.465	-0.93	-2.8	43.3
7.47	-0.94	-2.9	56.1
7.475	-0.95	-2.6	69.6
7.48	-0.96	-2.3	60.5
7.485	-0.96	-1.9	63.6
7.49	-0.97	-1.4	70.0
7.495	-0.97	-1.2	70.7
7.5	-0.97	-1.2	83.6
7.505	-0.97	-0.5	85.9
7.51	-0.97	1.3	81.3
7.515	-0.95	4.0	87.0
7.52	-0.92	7.4	85.2
7.525	-0.87	11.3	82.0
7.53	-0.80	15.2	87.5
7.535	-0.71	19.1	76.9
7.54	-0.60	23.0	66.1
7.545	-0.47	26.4	62.1
7.55	-0.33	29.1	50.8
7.555	-0.18	31.4	38.7
7.56	-0.02	33.0	28.9
7.565	0.15	33.6	22.9
7.57	0.32	33.5	11.0
7.575	0.48	32.9	-4.1
7.58	0.64	31.6	-13.1
7.585	0.79	29.9	-12.0
7.59	0.93	28.2	-7.6
7.595	1.06	26.4	-12.0
7.6	1.19	24.2	-12.8
7.605	1.29	21.9	-12.4
7.61	1.39	19.4	-17.4
7.615	1.48	16.6	-19.9
7.62	1.54	14.2	-18.8
7.625	1.60	12.2	-13.7
7.63	1.65	10.1	-12.7
7.635	1.69	8.2	-9.8
7.64	1.72	6.6	-5.7
7.645	1.74	5.1	-12.1
7.65	1.75	3.6	-11.7
7.655	1.76	2.6	-8.5
7.66	1.76	1.4	-17.8
7.665	1.76	-0.0	-21.9
7.67	1.75	-1.4	-11.5
7.675	1.73	-2.3	-5.4
7.68	1.71	-3.2	-8.2
7.685	1.68	-3.9	-8.5
7.69	1.65	-4.1	-10.6
7.695	1.63	-4.3	-13.5
7.7	1.60	-4.5	-9.8
7.705	1.57	-4.6	-0.2
7.71	1.54	-4.6	0.5
7.715	1.51	-4.9	-6.4
7.72	1.47	-5.4	0.4
7.725	1.44	-6.2	-0.2
7.73	1.40	-7.1	-7.5
7.735	1.35	-8.2	2.2
7.74	1.30	-9.4	1.7
7.745	1.25	-10.3	-5.1
7.75	1.19	-10.7	0.1
7.755	1.13	-10.7	7.4
7.76	1.07	-10.6	7.5
7.765	1.01	-10.5	3.1
7.77	0.96	-10.0	2.2
7.775	0.91	-9.0	0.9
7.78	0.86	-8.4	3.5
7.785	0.81	-8.1	2.5
7.79	0.77	-7.7	-3.1
7.795	0.73	-7.3	9.1
7.8	0.69	-6.6	8.8
7.805	0.66	-5.4	0.0
7.81	0.63	-4.3	4.5
7.815	0.61	-4.0	6.1
7.82	0.59	-3.9	8.5
7.825	0.57	-3.6	3.5
7.83	0.55	-3.4	4.3
7.835	0.53	-3.0	8.9
7.84	0.51	-2.2	7.9
7.845	0.50	-1.2	8.9
7.85	0.49	-0.5	6.5
7.855	0.49	0.4	6.6
7.86	0.49	1.0	2.7
7.865	0.50	1.3	-0.9
7.87	0.50	1.4	-2.7
7.875	0.51	1.5	-6.6
7.88	0.51	1.3	0.8
7.885	0.51	1.0	21.7
7.89	0.52	1.1	42.0
7.895	0.52	1.3	36.3
7.9	0.52	1.4	14.7
7.905	0.53	1.5	6.6
7.91	0.53	1.5	21.4
7.915	0.54	1.2	47.9
7.92	0.54	0.8	52.7
7.925	0.54	0.4	34.6
7.93	0.54	-0.1	41.7
7.935	0.54	-0.5	50.9
7.94	0.53	-0.4	37.5
7.945	0.53	-0.3	41.9
7.95	0.52	-0.5	51.3
7.955	0.52	-0.9	50.3
7.96	0.51	-1.4	41.7
7.965	0.50	-2.1	28.4
7.97	0.48	-2.7	26.1
7.975	0.47	-3.0	22.7
7.98	0.45	-3.5	-1.0
7.985	0.43	-3.7	-17.3
7.99	0.41	-3.4	-16.5
7.995	0.39	-3.1	-13.2
8	0.37	-3.1	-7.7
8.005	0.36	-3.1	-12.1
8.01	0.34	-3.3	-23.0
8.015	0.32	-3.9	-23.2
8.02	0.30	-4.5	-21.0
8.025	0.27	-4.9	-20.7
8.03	0.25	-5.0	-15.8
8.035	0.22	-4.7	-22.3
8.04	0.20	-4.1	-28.8
8.045	0.18	-3.7	-22.3
8.05	0.16	-3.9	-24.2
8.055	0.14	-4.2	-36.5
8.06	0.11	-4.6	-31.7
8.065	0.09	-5.0	1.5
8.07	0.06	-5.1	59.7
8.075	0.04	-4.8	167.6
8.08	0.02	-4.4	276.9
8.085	-0.01	-4.1	200.6
8.09	-0.02	-3.7	10.6
8.095	-0.04	-3.5	-4.6
8.1	-0.06	-3.8	-47.6
8.105	-0.08	-4.1	-314.5
8.11	-0.10	-4.3	-441.0
8.115	-0.12	-4.4	-296.5
8.12	-0.14	-4.2	-161.0
8.125	-0.16	-3.9	-124.5
8.13	-0.18	-3.8	-96.6
8.135	-0.20	-3.8	-55.3
8.14	-0.22	-3.7	-30.2
8.145	-0.23	-3.8	-22.7
8.15	-0.25	-4.0	-10.1
8.155	-0.27	-4.1	-5.4
8.16	-0.29	-4.0	-13.3
8.165	-0.31	-3.9	-4.6
8.17	-0.33	-3.5	7.8
8.175	-0.34	-3.0	6.2
8.18	-0.35	-2.7	12.4
8.185	-0.36	-2.7	24.7
8.19	-0.38	-2.7	26.0
8.195	-0.39	-2.9	26.1
8.2	-0.40	-3.3	34.8
8.205	-0.42	-3.4	36.6
8.21	-0.43	-3.3	36.0
8.215	-0.45	-3.3	33.3
8.22	-0.46	-3.2	28.7
8.225	-0.47	-2.9	35.6
8.23	-0.48	-2.8	41.4
8.235	-0.50	-2.6	48.0
8.24	-0.51	-2.4	50.9
8.245	-0.52	-2.4	47.1
8.25	-0.53	-2.6	56.0
8.255	-0.54	-2.7	67.8
8.26	-0.55	-2.5	64.2
8.265	-0.56	-2.4	63.2
8.27	-0.57	-2.3	71.3
8.275	-0.58	-2.3	76.4
8.28	-0.58	-2.6	85.3
8.285	-0.59	-2.7	90.5
8.29	-0.60	-2.2	86.9
8.295	-0.61	-1.3	95.0
8.3	-0.61	-0.1	104.1
8.305	-0.60	1.9	101.9
8.31	-0.59	4.7	105.0
8.315	-0.55	8.1	105.8
8.32	-0.50	12.2	105.8
8.325	-0.42	16.6	104.1
8.33	-0.33	20.6	93.8
8.335	-0.22	24.3	93.0
8.34	-0.08	27.7	84.0
8.345	0.06	30.7	59.5
8.35	0.22	33.3	49.6
8.355	0.39	35.5	45.7
8.36	0.57	37.1	32.9
8.365	0.76	37.6	17.1
8.37	0.94	37.1	6.2
8.375	1.12	36.0	7.5
8.38	1.29	34.4	10.9
8.385	1.45	32.6	7.4
8.39	1.60	30.6	-2.2
8.395	1.74	28.2	-12.3
8.4	1.87	25.3	-14.9
8.405	1.98	22.7	-5.6
8.41	2.08	20.4	0.0
8.415	2.16	18.0	-2.8
8.42	2.24	15.7	-11.6
8.425	2.30	13.6	-16.5
8.43	2.35	11.5	-9.8
8.435	2.39	9.4	-10.3
8.44	2.42	7.6	-8.6
8.445	2.45	5.8	-4.7
8.45	2.46	3.9	-3.2
8.455	2.46	2.2	-9.6
8.46	2.46	0.9	-18.4
8.465	2.45	-0.4	-3.3
8.47	2.43	-1.4	-0.3
8.475	2.41	-2.1	-7.5
8.48	2.39	-2.8	-4.1
8.485	2.36	-3.6	-6.8
8.49	2.33	-4.3	-2.3
8.495	2.30	-5.1	-3.5
8.5	2.26	-5.8	-10.0
8.505	2.22	-6.3	-3.3
8.51	2.18	-6.5	-2.9
8.515	2.13	-6.8	-5.2
8.52	2.09	-7.1	-1.6
8.525	2.04	-7.3	-4.5
8.53	2.00	-7.8	-4.9
8.535	1.95	-8.4	3.0
8.54	1.90	-8.8	1.5
8.545	1.84	-9.3	-3.1
8.55	1.79	-9.9	-0.1
8.555	1.73	-10.2	2.8
8.56	1.67	-10.1	-4.4
8.565	1.61	-9.8	-11.2
8.57	1.56	-9.2	-4.3
8.575	1.51	-8.5	0.2
8.58	1.46	-8.0	-5.7
8.585	1.41	-7.7	-11.9
8.59	1.37	-7.3	-7.8
8.595	1.33	-6.9	-3.9
8.6	1.29	-6.4	-4.0
8.605	1.25	-5.6	-4.7
8.61	1.22	-4.6	-10.6
8.615	1.19	-3.8	-10.9
8.62	1.17	-3.0	-0.3
8.625	1.15	-2.0	-0.5
8.63	1.14	-1.2	-4.9
8.635	1.13	-0.6	-2.7
8.64	1.12	0.3	-7.8
8.645	1.12	1.0	-19.3
8.65	1.12	1.6	-26.1
8.655	1.13	2.2	-7.7
8.66	1.14	2.8	11.0
8.665	1.15	3.3	16.8
8.67	1.16	3.7	21.3
8.675	1.17	3.9	7.2
8.68	1.19	3.6	-8.8
8.685	1.20	3.3	-1.5
8.69	1.21	3.4	27.4
8.695	1.22	3.5	42.3
8.7	1.23	3.0	36.0
8.705	1.24	2.4	33.4
8.71	1.24	1.9	36.0
8.715	1.25	1.4	39.0
8.72	1.25	1.3	34.6
8.725	1.25	1.2	33.3
8.73	1.25	1.0	39.2
8.735	1.25	0.8	38.2
8.74	1.24	0.8	24.0
8.745	1.24	0.6	8.8
8.75	1.24	0.1	5.9
8.755	1.23	-0.3	-1.5
8.76	1.22	-0.7	-14.1
8.765	1.21	-1.4	-6.3
8.77	1.20	-2.0	-4.5
8.775	1.18	-2.1	-18.3
8.78	1.17	-2.2	-18.3
8.785	1.15	-2.4	-14.8
8.79	1.13	-2.6	-16.3
8.795	1.11	-2.8	-18.7
8.8	1.09	-3.2	-16.4
8.805	1.07	-3.3	-22.7
8.81	1.05	-3.4	-32.1
8.815	1.03	-3.6	-28.7
8.82	1.01	-3.5	-29.5
8.825	0.98	-3.2	-30.2
8.83	0.96	-3.3	-35.6
8.835	0.94	-3.4	-36.9
8.84	0.92	-3.4	-11.5
8.845	0.90	-3.6	28.1
8.85	0.88	-3.9	91.3
8.855	0.85	-4.0	208.4
8.86	0.83	-4.0	272.3
8.865	0.81	-4.1	115.7
8.87	0.78	-4.0	-29.3
8.875	0.76	-3.7	-13.8
8.88	0.74	-3.9	-183.8
8.885	0.71	-4.4	-453.0
8.89	0.69	-4.6	-468.9
8.895	0.66	-4.5	-304.6
8.9	0.64	-4.2	-158.4
8.905	0.61	-3.7	-109.1
8.91	0.59	-3.2	-91.8
8.915	0.58	-3.2	-49.1
8.92	0.56	-3.3	-21.1
8.925	0.54	-3.4	-12.8
8.93	0.52	-3.7	-4.3
8.935	0.50	-4.0	4.0
8.94	0.47	-4.1	4.2
8.945	0.45	-4.0	2.4
8.95	0.43	-3.9	9.0
8.955	0.41	-3.4	13.9
8.96	0.39	-2.9	15.7
8.965	0.38	-2.7	24.8
8.97	0.36	-2.5	27.6
8.975	0.35	-2.2	19.3
8.98	0.33	-2.4	28.9
8.985	0.32	-3.1	42.5
8.99	0.30	-3.5	35.2
8.995	0.28	-3.8	28.7
9	0.26	-3.9	34.0
9.005	0.24	-3.9	37.2
9.01	0.22	-3.6	41.0
9.015	0.20	-3.3	49.5
9.02	0.19	-2.8	54.4
9.025	0.17	-2.2	52.7
9.03	0.16	-2.0	47.8
9.035	0.15	-2.0	51.6
9.04	0.14	-2.1	65.3
9.045	0.13	-2.3	76.5
9.05	0.12	-2.6	81.3
9.055	0.10	-2.5	81.9
9.06	0.09	-2.3	77.0
9.065	0.08	-2.3	78.0
9.07	0.07	-2.0	82.9
9.075	0.06	-1.3	87.6
9.08	0.05	-0.4	89.3
9.085	0.05	0.9	85.4
9.09	0.06	3.1	88.3
9.095	0.09	6.0	93.5
9.1	0.12	9.6	90.2
9.105	0.18	13.8	82.3
9.11	0.26	18.2	68.3
9.115	0.36	22.2	55.8
9.12	0.48	26.0	46.4
9.125	0.62	29.7	33.0
9.13	0.77	32.8	30.5
9.135	0.94	35.2	16.0
9.14	1.11	37.0	-5.2
9.145	1.29	37.9	-6.7
9.15	1.48	38.1	-11.0
9.155	1.66	37.7	-13.8
9.16	1.84	36.8	-18.8
9.165	2.01	35.2	-29.0
9.17	2.17	33.2	-22.6
9.175	2.32	30.9	-17.3
9.18	2.46	28.1	-21.2
9.185	2.58	25.2	-19.6
9.19	2.69	22.6	-24.2
9.195	2.78	20.1	-31.6
9.2	2.86	17.5	-25.8
9.205	2.93	15.2	-26.3
9.21	2.99	12.8	-30.9
9.215	3.03	10.4	-22.1
9.22	3.06	8.3	-22.3
9.225	3.09	6.3	-28.5
9.23	3.10	4.3	-29.0
9.235	3.10	2.3	-26.8
9.24	3.09	0.7	-17.2
9.245	3.08	-0.8	-18.2
9.25	3.06	-2.2	-30.4
9.255	3.03	-3.3	-27.5
9.26	3.00	-4.1	-20.2
9.265	2.96	-4.9	-20.7
9.27	2.92	-5.7	-20.1
9.275	2.88	-6.5	-20.9
9.28	2.83	-7.6	-20.6
9.285	2.78	-8.6	-17.3
9.29	2.72	-9.3	-20.2
9.295	2.66	-9.9	-34.3
9.3	2.59	-10.8	-30.1
9.305	2.53	-11.7	-21.1
9.31	2.46	-12.5	-33.2
9.315	2.38	-13.2	-29.2
9.32	2.30	-13.5	-19.0
9.325	2.22	-13.6	-28.4
9.33	2.15	-13.7	-34.0
9.335	2.07	-13.9	-31.8
9.34	1.99	-13.7	-29.6
9.345	1.91	-13.3	-25.0
9.35	1.84	-12.7	-23.7
9.355	1.77	-11.8	-23.6
9.36	1.70	-10.9	-29.0
9.365	1.64	-10.3	-30.6
9.37	1.59	-9.6	-27.3
9.375	1.53	-8.7	-31.8
9.38	1.48	-8.0	-24.8
9.385	1.44	-7.2	-23.2
9.39	1.40	-6.1	-27.6
9.395	1.37	-5.3	-30.3
9.4	1.34	-4.8	-33.0
9.405	1.31	-4.2	-30.8
9.41	1.28	-3.5	-31.9
9.415	1.26	-2.7	-25.8
9.42	1.24	-1.7	-22.9
9.425	1.23	-0.6	-36.2
9.43	1.23	0.2	-41.0
9.435	1.22	0.9	-14.5
9.44	1.22	1.6	6.4
9.445	1.23	2.0	-0.6
9.45	1.23	2.1	-14.6
9.455	1.24	2.0	-19.2
9.46	1.24	1.9	-14.3
9.465	1.24	1.9	3.8
9.47	1.25	2.0	24.5
9.475	1.25	2.1	24.8
9.48	1.26	1.7	22.7
9.485	1.26	1.3	23.0
9.49	1.26	1.0	22.6
9.495	1.26	0.7	25.4
9.5	1.25	0.2	31.3
9.505	1.25	-0.3	35.6
9.51	1.24	-0.7	26.4
9.515	1.23	-1.0	11.0
9.52	1.22	-1.4	2.3
9.525	1.20	-1.9	-8.6
9.53	1.19	-2.6	-20.3
9.535	1.17	-3.2	-15.5
9.54	1.14	-3.4	-13.3
9.545	1.12	-3.6	-20.3
9.55	1.10	-3.9	-16.8
9.555	1.07	-4.2	-17.3
9.56	1.05	-4.5	-23.0
9.565	1.02	-5.0	-24.0
9.57	0.99	-5.4	-27.8
9.575	0.95	-5.5	-27.8
9.58	0.92	-5.7	-26.0
9.585	0.89	-6.0	-29.3
9.59	0.85	-6.3	-26.5
9.595	0.82	-6.5	-28.4
9.6	0.78	-6.6	-40.3
9.605	0.75	-6.6	-51.7
9.61	0.71	-6.6	-42.2
9.615	0.67	-6.8	0.3
9.62	0.64	-6.9	45.9
9.625	0.60	-6.9	113.9
9.63	0.56	-6.8	223.0
9.635	0.52	-6.9	216.8
9.64	0.49	-6.9	10.1
9.645	0.45	-7.1	-91.1
9.65	0.41	-7.2	-78.0
9.655	0.38	-7.1	-265.1
9.66	0.34	-6.8	-451.9
9.665	0.30	-6.7	-379.5
9.67	0.27	-6.5	-213.9
9.675	0.24	-6.3	-129.1
9.68	0.20	-6.3	-100.4
9.685	0.17	-6.6	-69.8
9.69	0.14	-6.6	-32.8
9.695	0.10	-6.6	-14.4
9.7	0.07	-6.5	-3.5
9.705	0.04	-6.3	7.2
9.71	0.01	-6.2	7.4
9.715	-0.03	-6.4	7.9
9.72	-0.06	-6.5	10.3
9.725	-0.09	-6.4	18.9
9.73	-0.12	-6.1	24.4
9.735	-0.15	-5.7	26.6
9.74	-0.18	-5.5	30.9
9.745	-0.20	-5.6	35.6
9.75	-0.23	-6.0	36.9
9.755	-0.26	-6.3	31.8
9.76	-0.29	-6.3	35.8
9.765	-0.32	-6.3	49.2
9.77	-0.35	-6.1	53.5
9.775	-0.38	-5.6	47.3
9.78	-0.40	-5.2	45.7
9.785	-0.43	-4.9	48.9
9.79	-0.45	-4.5	55.6
9.795	-0.47	-4.2	58.5
9.8	-0.49	-4.3	64.8
9.805	-0.51	-4.5	67.5
9.81	-0.53	-4.6	58.7
9.815	-0.55	-4.8	60.9
9.82	-0.57	-4.8	71.0
9.825	-0.59	-4.5	82.6
9.83	-0.61	-4.3	90.7
9.835	-0.63	-4.2	93.6
9.84	-0.64	-3.8	93.4
9.845	-0.66	-3.2	88.3
9.85	-0.67	-2.2	91.8
9.855	-0.67	-0.6	97.6
9.86	-0.67	1.9	97.5
9.865	-0.65	5.0	101.5
9.87	-0.61	8.9	98.6
9.875	-0.55	13.5	87.3
9.88	-0.47	18.3	92.1
9.885	-0.36	23.0	88.5
9.89	-0.24	27.8	65.3
9.895	-0.09	32.2	48.7
9.9	0.08	35.7	37.5
9.905	0.27	38.6	24.0
9.91	0.47	40.6	15.5
9.915	0.67	41.7	11.2
9.92	0.88	41.8	0.0
9.925	1.08	41.6	-11.2
9.93	1.28	41.0	-15.6
9.935	1.48	39.7	-14.0
9.94	1.66	37.7	-14.5
9.945	1.84	35.3	-15.6
9.95	2.00	32.6	-19.2
9.955	2.15	30.0	-27.5
9.96	2.28	27.2	-29.7
9.965	2.40	23.9	-26.8
9.97	2.50	20.5	-23.4
9.975	2.58	17.5	-23.1
9.98	2.65	14.9	-21.0
9.985	2.70	12.4	-21.9
9.99	2.75	10.0	-23.6
9.995	2.78	7.5	-21.3
10	2.79	5.0	-28.1
10.005	2.80	2.8	-26.9
10.01	2.80	0.8	-18.9
10.015	2.78	-1.1	-26.2
10.02	2.76	-2.6	-21.8
10.025	2.73	-3.7	-12.7
10.03	2.70	-5.2	-19.9
10.035	2.66	-6.9	-24.9
10.04	2.61	-8.0	-23.4
10.045	2.55	-8.9	-18.4
10.05	2.49	-9.9	-15.3
10.055	2.43	-10.7	-10.7
10.06	2.37	-11.2	-10.8
10.065	2.30	-11.7	-12.6
10.07	2.23	-11.9	-12.5
10.075	2.16	-11.9	-16.8
10.08	2.09	-12.3	-15.3
10.085	2.02	-12.8	-11.8
10.09	1.94	-13.2	-13.8
10.095	1.87	-13.6	-16.8
10.1	1.79	-14.2	-16.0
10.105	1.71	-14.7	-13.1
10.11	1.63	-14.9	-4.5
10.115	1.55	-14.8	-5.2
10.12	1.47	-14.1	-11.6
10.125	1.39	-13.0	-8.8
10.13	1.32	-12.4	-12.0
10.135	1.26	-12.2	-7.0
10.14	1.19	-11.8	-1.4
10.145	1.13	-11.1	-11.6
10.15	1.07	-10.3	-11.5
10.155	1.01	-9.3	-3.6
10.16	0.97	-8.2	-3.3
10.165	0.92	-7.1	-3.3
10.17	0.89	-6.0	-4.5
10.175	0.85	-4.8	-7.5
10.18	0.83	-3.8	-2.8
10.185	0.81	-2.9	3.7
10.19	0.79	-1.9	-2.8
10.195	0.78	-1.0	-3.4
10.2	0.78	-0.5	-1.8
10.205	0.77	0.3	-1.2
10.21	0.77	1.2	1.7
10.215	0.78	2.1	7.8
10.22	0.78	2.6	32.7
10.225	0.79	2.8	30.1
10.23	0.81	2.6	3.4
10.235	0.81	2.2	2.8
10.24	0.82	2.1	26.7
10.245	0.83	2.0	52.0
10.25	0.83	1.8	53.3
10.255	0.84	1.8	45.6
10.26	0.84	2.0	42.6
10.265	0.85	1.7	41.3
10.27	0.85	1.0	47.9
10.275	0.85	0.3	55.8
10.28	0.85	-0.3	53.5
10.285	0.84	-0.7	48.0
10.29	0.83	-0.8	41.3
10.295	0.82	-1.0	30.2
10.3	0.81	-1.5	26.1
10.305	0.80	-2.0	8.5
10.31	0.79	-2.3	-13.5
10.315	0.77	-2.8	-9.5
10.32	0.75	-3.3	-4.5
10.325	0.73	-3.6	-1.8
10.33	0.71	-3.9	-4.4
10.335	0.69	-4.2	-11.8
10.34	0.66	-4.4	-12.0
10.345	0.64	-4.7	-18.3
10.35	0.61	-5.3	-16.2
10.355	0.58	-5.7	-12.1
10.36	0.55	-5.9	-17.4
10.365	0.51	-6.1	-19.0
10.37	0.48	-6.2	-17.9
10.375	0.45	-6.3	-19.2
10.38	0.41	-6.6	-28.2
10.385	0.38	-6.9	-29.1
10.39	0.34	-7.1	0.3
10.395	0.30	-7.3	41.1
10.4	0.26	-7.6	106.8
10.405	0.23	-7.6	221.8
10.41	0.19	-7.5	253.6
10.415	0.15	-7.5	78.5
10.42	0.11	-7.4	-57.1
10.425	0.07	-7.1	-36.1
10.43	0.04	-7.0	-193.4
10.435	0.00	-7.2	-440.1
10.44	-0.03	-7.2	-415.9
10.445	-0.07	-7.1	-233.6
10.45	-0.10	-6.9	-128.3
10.455	-0.14	-6.5	-99.7
10.46	-0.17	-6.2	-74.5
10.465	-0.20	-6.3	-41.8
10.47	-0.23	-6.6	-17.8
10.475	-0.26	-6.6	-12.9
10.48	-0.29	-6.7	-8.8
10.485	-0.33	-6.8	4.0
10.49	-0.36	-6.8	10.2
10.495	-0.39	-6.7	13.5
10.5	-0.42	-6.5	15.0
10.505	-0.45	-6.0	14.4
10.51	-0.48	-5.6	20.1
10.515	-0.50	-5.7	26.6
10.52	-0.53	-5.8	31.8
10.525	-0.56	-5.8	39.0
10.53	-0.58	-5.9	33.4
10.535	-0.61	-6.0	28.7
10.54	-0.64	-5.7	34.7
10.545	-0.66	-5.3	31.9
10.55	-0.68	-5.2	44.7
10.555	-0.70	-4.9	53.9
10.56	-0.72	-4.5	34.3
10.565	-0.74	-4.3	40.3
10.57	-0.76	-4.3	57.9
10.575	-0.78	-4.3	51.2
10.58	-0.80	-4.5	52.4
10.585	-0.82	-4.7	60.3
10.59	-0.84	-4.7	62.5
10.595	-0.86	-4.8	69.3
10.6	-0.88	-5.1	74.0
10.605	-0.90	-5.0	77.7
10.61	-0.92	-4.6	84.1
10.615	-0.94	-3.9	86.0
10.62	-0.95	-2.9	89.0
10.625	-0.95	-1.2	91.9
10.63	-0.95	0.9	95.6
10.635	-0.94	3.7	97.2
10.64	-0.90	7.4	93.4
10.645	-0.85	11.8	92.0
10.65	-0.78	16.7	93.0
10.655	-0.68	22.0	85.7
10.66	-0.55	27.3	76.8
10.665	-0.40	32.4	73.5
10.67	-0.22	37.1	66.1
10.675	-0.03	41.3	55.9
10.68	0.19	44.4	36.7
10.685	0.41	45.9	25.0
10.69	0.64	46.4	21.5
10.695	0.87	46.7	7.7
10.7	1.10	46.5	3.0
10.705	1.32	45.6	-2.0
10.71	1.54	44.1	-14.0
10.715	1.75	42.1	-12.4
10.72	1.95	39.9	-9.4
10.725	2.13	37.3	-6.8
10.73	2.30	33.9	-10.4
10.735	2.45	29.9	-16.4
10.74	2.58	26.1	-10.2
10.745	2.69	22.8	-8.9
10.75	2.78	19.7	-9.9
10.755	2.86	16.8	-7.5
10.76	2.92	13.8	-11.9
10.765	2.97	10.6	-14.8
10.77	3.00	7.7	-21.0
10.775	3.02	5.2	-24.7
10.78	3.02	2.8	-19.9
10.785	3.02	0.7	-19.9
10.79	3.00	-0.9	-12.5
10.795	2.98	-2.4	-8.3
10.8	2.95	-3.9	-13.6
10.805	2.92	-5.1	-20.0
10.81	2.87	-6.2	-22.9
10.815	2.83	-7.4	-18.8
10.82	2.77	-8.7	-20.7
10.825	2.72	-9.7	-20.8
10.83	2.65	-10.6	-16.2
10.835	2.59	-11.3	-14.6
10.84	2.52	-11.6	-16.2
10.845	2.45	-12.1	-9.7
10.85	2.37	-12.8	-7.7
10.855	2.30	-13.6	-16.9
10.86	2.22	-14.3	-17.6
10.865	2.13	-15.2	-18.1
10.87	2.05	-15.8	-21.6
10.875	1.96	-16.0	-25.0
10.88	1.87	-16.2	-22.5
10.885	1.78	-16.4	-13.0
10.89	1.69	-16.1	-10.5
10.895	1.60	-15.7	-18.3
10.9	1.52	-15.4	-19.6
10.905	1.43	-14.9	-14.0
10.91	1.35	-14.1	-12.4
10.915	1.28	-13.4	-13.4
10.92	1.21	-12.6	-12.5
10.925	1.14	-11.6	-10.5
10.93	1.08	-10.7	-17.0
10.935	1.03	-9.7	-14.0
10.94	0.98	-8.5	-5.7
10.945	0.93	-7.3	-6.8
10.95	0.89	-6.2	-8.9
10.955	0.86	-4.8	-13.0
10.96	0.84	-3.5	-12.2
10.965	0.82	-2.6	-10.3
10.97	0.81	-1.9	-12.1
10.975	0.79	-1.1	-12.8
10.98	0.79	-0.4	-18.0
10.985	0.78	0.3	-27.9
10.99	0.78	1.3	-31.5
10.995	0.79	2.0	-15.5
11	0.79	2.4	13.5
11.005	0.80	2.8	26.3
11.01	0.82	3.1	5.2
11.015	0.83	3.0	-13.3
11.02	0.84	2.8	0.9
11.025	0.85	2.7	29.6
11.03	0.86	2.5	43.2
11.035	0.86	2.2	34.7
11.04	0.87	2.0	32.8
11.045	0.88	1.9	37.1
11.05	0.88	1.5	37.2
11.055	0.88	1.0	37.9
11.06	0.88	0.4	33.5
11.065	0.88	-0.3	36.1
11.07	0.87	-0.9	46.0
11.075	0.86	-1.2	33.5
11.08	0.85	-1.6	10.2
11.085	0.84	-2.1	5.7
11.09	0.82	-2.7	-8.0
11.095	0.81	-3.2	-30.7
11.1	0.78	-3.7	-30.5
11.105	0.76	-3.9	-20.3
11.11	0.74	-4.1	-17.9
11.115	0.71	-4.6	-18.5
11.12	0.69	-5.0	-14.9
11.125	0.66	-5.4	-18.0
11.13	0.63	-5.9	-26.8
11.135	0.59	-6.5	-28.3
11.14	0.56	-6.7	-25.5
11.145	0.52	-6.7	-24.3
11.15	0.48	-6.9	-28.7
11.155	0.45	-7.2	-31.5
11.16	0.41	-7.4	-26.2
11.165	0.37	-7.8	-30.1
11.17	0.33	-7.8	-45.3
11.175	0.29	-7.6	-30.3
11.18	0.25	-7.6	12.7
11.185	0.21	-7.8	71.6
11.19	0.17	-7.7	192.6
11.195	0.13	-7.7	277.0
11.2	0.09	-7.8	140.8
11.205	0.05	-7.8	-33.4
11.21	0.01	-7.7	-14.5
11.215	-0.03	-7.7	-97.2
11.22	-0.06	-7.5	-360.8
11.225	-0.10	-7.1	-425.0
11.23	-0.13	-7.1	-270.9
11.235	-0.17	-7.3	-151.3
11.24	-0.21	-7.5	-113.1
11.245	-0.24	-7.5	-84.5
11.25	-0.28	-7.7	-52.4
11.255	-0.32	-7.5	-28.3
11.26	-0.35	-7.2	-17.2
11.265	-0.38	-6.9	-15.8
11.27	-0.42	-6.6	-9.0
11.275	-0.45	-6.2	-7.5
11.28	-0.47	-6.1	0.4
11.285	-0.50	-6.2	16.0
11.29	-0.53	-6.1	17.8
11.295	-0.56	-6.0	22.0
11.3	-0.59	-6.1	24.6
11.305	-0.61	-6.1	18.5
11.31	-0.64	-6.2	22.8
11.315	-0.67	-6.4	29.6
11.32	-0.70	-6.5	28.7
11.325	-0.73	-6.4	28.5
11.33	-0.76	-6.3	31.9	#2 Resting ECG Finger Pulse  
