Time	VolPulse	BloodFlow	ECG
0.000	0.000	1.613	36.300
0.005	0.030	9.383	150.000
0.010	0.100	17.583	180.500
0.015	0.190	20.387	140.100
0.020	0.290	NaN	134.000
0.025	0.390	NaN	127.300
0.030	0.500	NaN	100.100
0.035	0.590	NaN	126.700
0.040	0.690	NaN	133.500
0.045	0.790	20.479	90.000
0.050	0.890	0.000	100.000
0.055	0.990	20.475	105.400
0.060	1.090	0.000	96.500
0.065	1.190	20.471	112.700
0.070	1.280	NaN	94.900
0.075	1.380	20.096	86.000
0.080	1.470	17.723	117.400
0.085	1.540	14.126	131.900
0.090	1.590	11.046	104.000
0.095	1.640	8.194	64.100
0.100	1.660	5.480	85.700
0.105	1.680	3.207	101.600
0.110	1.680	0.664	93.400
0.115	1.670	-2.598	119.000
0.120	1.640	-5.442	122.600
0.125	1.600	-7.006	92.900
0.130	1.550	-7.834	56.800
0.135	1.510	-8.306	34.800
0.140	1.460	-8.766	39.700
0.145	1.400	-9.942	50.800
0.150	1.340	-11.499	46.200
0.155	1.280	-12.841	52.600
0.160	1.200	-14.459	66.500
0.165	1.120	-16.306	69.800
0.170	1.030	-17.496	71.600
0.175	0.940	-18.004	43.500
0.180	0.840	-18.035	40.600
0.185	0.750	-17.325	82.800
0.190	0.660	-16.377	97.600
0.195	0.580	-16.138	50.900
0.200	0.500	-16.479	8.500
0.205	0.410	-16.770	25.200
0.210	0.320	-17.139	13.600
0.215	0.240	-17.594	33.300
0.220	0.150	-17.851	177.800
0.225	0.060	-18.145	355.400
0.230	-0.040	-18.243	481.100
0.235	-0.120	-17.376	518.900
0.240	-0.210	-15.902	450.500
0.245	-0.280	-14.992	251.300
0.250	-0.350	-14.835	43.800
0.255	-0.430	-14.891	-0.700
0.260	-0.500	-14.955	25.000
0.265	-0.570	-14.664	13.600
0.270	-0.640	-13.584	51.400
0.275	-0.700	-12.509	89.100
0.280	-0.760	-12.083	65.000
0.285	-0.820	-11.306	81.600
0.290	-0.860	-9.661	104.400
0.295	-0.900	-8.005	100.800
0.300	-0.940	-6.581	93.700
0.305	-0.960	-5.128	79.600
0.310	-0.980	-4.242	105.900
0.315	-1.000	-3.996	126.900
0.320	-1.010	-3.563	102.500
0.325	-1.020	-3.163	109.900
0.330	-1.030	-3.324	151.600
0.335	-1.040	-3.436	180.200
0.340	-1.060	-3.214	171.000
0.345	-1.070	-3.357	152.300
0.350	-1.080	-3.536	199.300
0.355	-1.090	-2.806	251.200
0.360	-1.100	-1.690	247.000
0.365	-1.100	-0.873	247.000
0.370	-1.100	-0.405	289.700
0.375	-1.100	-1.011	314.400
0.380	-1.100	-2.866	316.300
0.385	-1.110	-4.298	326.400
0.390	-1.130	-4.697	309.600
0.395	-1.150	-4.882	303.400
0.400	-1.170	-3.110	288.700
0.405	-1.160	2.219	228.900
0.410	-1.130	9.601	202.300
0.415	-1.060	16.816	212.000
0.420	-0.960	20.337	185.900
0.425	-0.850	20.470	151.800
0.430	-0.750	20.477	138.100
0.435	-0.640	NaN	129.800
0.440	-0.530	20.471	122.900
0.445	-0.430	NaN	98.100
0.450	-0.330	20.477	104.800
0.455	-0.220	NaN	129.100
0.460	-0.120	20.474	103.900
0.465	-0.020	NaN	104.700
0.470	0.090	20.460	140.000
0.475	0.190	NaN	137.300
0.480	0.290	19.813	123.600
0.485	0.380	17.248	118.100
0.490	0.460	13.998	101.000
0.495	0.520	10.687	85.600
0.500	0.560	7.406	96.400
0.505	0.590	4.901	115.600
0.510	0.600	2.707	92.200
0.515	0.610	0.447	53.300
0.520	0.600	-1.450	60.400
0.525	0.590	-3.603	79.000
0.530	0.560	-6.626	36.800
0.535	0.520	-9.175	5.800
0.540	0.460	-10.332	19.700
0.545	0.410	-11.100	25.200
0.550	0.350	-11.911	38.300
0.555	0.290	-12.584	22.700
0.560	0.220	-14.101	8.300
0.565	0.140	-16.247	17.400
0.570	0.060	-17.225	22.200
0.575	-0.030	-17.209	19.800
0.580	-0.110	-17.314	9.800
0.585	-0.200	-17.139	8.500
0.590	-0.280	-16.666	22.800
0.595	-0.370	-16.914	59.600
0.600	-0.450	-17.616	13.700
0.605	-0.540	-17.909	-32.900
0.610	-0.620	-18.286	3.700
0.615	-0.710	-18.858	46.800
0.620	-0.810	-18.749	120.700
0.625	-0.890	-18.208	267.700
0.630	-0.980	-17.866	397.800
0.635	-1.060	-17.394	434.500
0.640	-1.140	-16.914	396.900
0.645	-1.220	-17.049	229.500
0.650	-1.300	-17.289	1.900
0.655	-1.380	-16.943	-102.500
0.660	-1.460	-16.467	-63.200
0.665	-1.530	-15.880	4.700
0.670	-1.600	-14.547	10.400
0.675	-1.660	-13.078	-8.000
0.680	-1.720	-12.056	9.900
0.685	-1.770	-10.795	20.000
0.690	-1.810	-9.524	18.300
0.695	-1.850	-9.199	21.600
0.700	-1.890	-9.135	27.800
0.705	-1.920	-8.321	34.100
0.710	-1.950	-7.402	38.300
0.715	-1.980	-6.901	65.000
0.720	-2.000	-6.268	86.400
0.725	-2.020	-5.853	69.300
0.730	-2.040	-6.101	69.600
0.735	-2.060	-5.970	78.800
0.740	-2.080	-5.121	97.100
0.745	-2.100	-4.542	129.900
0.750	-2.110	-4.089	138.300
0.755	-2.120	-3.188	173.000
0.760	-2.120	-2.584	194.900
0.765	-2.130	-2.472	179.800
0.770	-2.130	-2.338	206.600
0.775	-2.130	-2.944	231.700
0.780	-2.140	-4.532	218.500
0.785	-2.160	-5.467	215.800
0.790	-2.170	-5.211	216.000
0.795	-2.190	-4.491	217.000
0.800	-2.190	-2.071	206.900
0.805	-2.180	3.009	166.300
0.810	-2.140	9.914	151.000
0.815	-2.060	17.018	136.500
0.820	-1.960	20.398	104.900
0.825	-1.850	20.453	93.300
0.830	-1.740	NaN	65.300
0.835	-1.630	NaN	52.400
0.840	-1.520	20.472	77.300
0.845	-1.410	NaN	65.300
0.850	-1.300	20.476	46.600
0.855	-1.190	NaN	53.600
0.860	-1.080	20.477	45.900
0.865	-0.980	NaN	51.100
0.870	-0.870	20.476	57.500
0.875	-0.760	NaN	51.200
0.880	-0.660	20.306	27.100
0.885	-0.560	18.658	38.800
0.890	-0.470	15.174	81.300
0.895	-0.400	10.981	35.200
0.900	-0.350	7.582	-32.400
0.905	-0.320	5.439	-6.900
0.910	-0.300	3.143	38.600
0.915	-0.290	0.190	47.800
0.920	-0.290	-2.286	43.100
0.925	-0.310	-4.052	11.600
0.930	-0.330	-5.725	-12.200
0.935	-0.360	-7.046	-30.000
0.940	-0.400	-7.862	-50.800
0.945	-0.440	-8.900	-51.200
0.950	-0.480	-10.037	-53.300
0.955	-0.530	-10.687	-37.400
0.960	-0.580	-11.488	-37.400
0.965	-0.640	-12.649	-52.400
0.970	-0.700	-13.376	-54.500
0.975	-0.770	-14.211	-64.400
0.980	-0.840	-15.693	-34.000
0.985	-0.920	-16.728	-7.800
0.990	-1.000	-17.182	-29.000
0.995	-1.080	-17.915	-38.800
1.000	-1.170	-18.349	-19.000
1.005	-1.250	-17.989	-28.000
1.010	-1.340	-18.099	-57.400
1.015	-1.420	-19.143	-18.700
1.020	-1.510	-19.896	75.600
1.025	-1.610	-20.069	184.500
1.030	-1.700	-20.201	286.500
1.035	-1.790	-19.838	289.800
1.040	-1.880	-18.858	217.400
1.045	-1.960	-18.016	120.000
1.050	-2.040	-16.966	-60.900
1.055	-2.110	-15.256	-192.600
1.060	-2.180	-13.941	-134.200
1.065	-2.230	-13.441	-41.500
1.070	-2.290	-12.796	-46.800
1.075	-2.340	-11.899	-51.000
1.080	-2.390	-11.232	-40.900
1.085	-2.430	-10.449	-63.100
1.090	-2.470	-9.779	-79.200
1.095	-2.510	-10.085	-68.000
1.100	-2.550	-10.390	-50.200
1.105	-2.590	-9.268	-47.200
1.110	-2.620	-7.542	-42.900
1.115	-2.640	-6.138	-34.300
1.120	-2.650	-4.708	-12.600
1.125	-2.660	-3.453	-22.800
1.130	-2.660	-2.662	-22.000
1.135	-2.660	-1.808	6.900
1.140	-2.660	-1.103	-17.100
1.145	-2.650	-1.367	0.600
1.150	-2.650	-2.106	51.200
1.155	-2.650	-2.119	51.500
1.160	-2.640	-1.394	56.000
1.165	-2.640	-0.644	73.000
1.170	-2.630	-0.338	80.500
1.175	-2.620	-1.047	92.600
1.180	-2.610	-2.269	110.500
1.185	-2.610	-2.355	117.700
1.190	-2.610	-0.987	108.700
1.195	-2.600	1.623	79.200
1.200	-2.570	6.117	57.200
1.205	-2.510	12.979	71.400
1.210	-2.420	18.973	56.200
1.215	-2.310	NaN	18.500
1.220	-2.190	20.422	10.400
1.225	-2.080	NaN	-2.500
1.230	-1.970	20.463	-26.800
1.235	-1.860	NaN	-31.700
1.240	-1.750	NaN	-8.800
1.245	-1.640	NaN	-18.800
1.250	-1.530	NaN	-45.200
1.255	-1.420	NaN	-42.200
1.260	-1.310	20.476	-24.300
1.265	-1.200	NaN	8.800
1.270	-1.090	20.464	-12.200
1.275	-0.990	NaN	-42.900
1.280	-0.880	19.806	-12.500
1.285	-0.780	17.832	12.700
1.290	-0.700	15.456	23.700
1.295	-0.620	12.672	7.400
1.300	-0.560	9.831	-36.600
1.305	-0.520	7.523	-31.800
1.310	-0.480	4.764	-10.400
1.315	-0.470	1.405	-2.000
1.320	-0.470	-1.435	-4.200
1.325	-0.480	-3.998	-13.500
1.330	-0.500	-6.634	-34.800
1.335	-0.540	-8.149	-50.800
1.340	-0.580	-8.578	-49.400
1.345	-0.620	-9.382	-53.400
1.350	-0.670	-10.555	-50.800
1.355	-0.720	-11.463	-66.500
1.360	-0.770	-12.720	-75.000
1.365	-0.840	-14.416	-64.900
1.370	-0.910	-15.577	-50.300
1.375	-0.980	-16.453	-44.400
1.380	-1.060	-17.507	-41.800
1.385	-1.150	-18.101	-51.500
1.390	-1.240	-18.479	-51.700
1.395	-1.320	-19.121	-36.000
1.400	-1.410	-19.081	-52.800
1.405	-1.500	-17.966	-61.500
1.410	-1.580	-17.077	-56.300
1.415	-1.660	-16.975	-29.200
1.420	-1.730	-16.718	44.800
1.425	-1.810	-16.380	212.900
1.430	-1.880	-16.545	370.000
1.435	-1.960	-16.484	386.100
1.440	-2.030	-15.928	352.200
1.445	-2.100	-15.534	200.700
1.450	-2.160	-15.008	-38.600
1.455	-2.230	-13.855	-143.200
1.460	-2.280	-12.843	-94.300
1.465	-2.330	-12.238	-46.800
1.470	-2.380	-11.306	-57.300
1.475	-2.430	-10.403	-36.500
1.480	-2.470	-9.943	-24.000
1.485	-2.500	-8.921	-40.000
1.490	-2.530	-7.104	-35.000
1.495	-2.550	-5.521	-30.000
1.500	-2.560	-4.204	-10.700
1.505	-2.570	-2.866	6.400
1.510	-2.570	-2.257	-17.600
1.515	-2.570	-2.449	-4.400
1.520	-2.570	-2.799	16.500
1.525	-2.570	-3.339	2.600
1.530	-2.580	-3.752	-1.800
1.535	-2.590	-3.183	12.100
1.540	-2.590	-2.061	33.300
1.545	-2.580	-1.718	38.400
1.550	-2.580	-1.969	46.800
1.555	-2.580	-1.909	30.600
1.560	-2.580	-2.021	40.300
1.565	-2.580	-2.794	113.200
1.570	-2.580	-3.822	118.600
1.575	-2.590	-4.884	83.200
1.580	-2.610	-5.506	82.000
1.585	-2.620	-4.786	97.800
1.590	-2.630	-2.396	98.800
1.595	-2.620	1.509	71.100
1.600	-2.590	7.360	60.200
1.605	-2.520	14.963	31.600
1.610	-2.420	19.921	-20.100
1.615	-2.300	NaN	-41.800
1.620	-2.190	20.446	-47.000
1.625	-2.080	NaN	-67.700
1.630	-1.970	20.460	-97.900
1.635	-1.860	NaN	-105.900
1.640	-1.750	20.478	-111.900
1.645	-1.640	NaN	-115.700
1.650	-1.530	NaN	-88.000
1.655	-1.420	20.477	-95.400
1.660	-1.310	NaN	-144.900
1.665	-1.200	NaN	-132.300
1.670	-1.090	20.474	-105.600
1.675	-0.980	20.376	-114.400
1.680	-0.880	18.646	-132.300
1.685	-0.790	15.153	-155.300
1.690	-0.720	11.516	-153.100
1.695	-0.670	7.673	-156.800
1.700	-0.640	4.272	-160.400
1.705	-0.620	2.029	-164.600
1.710	-0.610	-0.411	-185.000
1.715	-0.620	-3.283	-208.500
1.720	-0.640	-5.211	-217.400
1.725	-0.670	-6.502	-173.300
1.730	-0.700	-8.264	-147.000
1.735	-0.740	-10.083	-175.300
1.740	-0.790	-11.745	-203.200
1.745	-0.850	-13.824	-205.800
1.750	-0.920	-15.650	-216.700
1.755	-1.000	-16.362	-246.800
1.760	-1.080	-16.754	-249.000
1.765	-1.160	-17.253	-226.600
1.770	-1.240	-17.233	-211.100
1.775	-1.320	-17.259	-237.900
1.780	-1.400	-17.981	-263.300
1.785	-1.490	-18.537	-243.800
1.790	-1.570	-18.622	-241.000
1.795	-1.660	-18.846	-225.200
1.800	-1.740	-18.856	-201.400
1.805	-1.830	-18.243	-228.800
1.810	-1.910	-17.799	-260.100
1.815	-1.990	-17.701	-266.200
1.820	-2.070	-17.277	-237.000
1.825	-2.140	-16.906	-189.700
1.830	-2.220	-17.137	-57.400
1.835	-2.290	-17.134	146.800
1.840	-2.370	-16.486	251.100
1.845	-2.440	-15.918	250.900
1.850	-2.500	-15.404	121.500
1.855	-2.570	-14.751	-138.700
1.860	-2.630	-14.438	-323.700
1.865	-2.690	-14.138	-342.100
1.870	-2.750	-12.992	-279.000
1.875	-2.790	-11.423	-222.300
1.880	-2.830	-10.039	-231.700
1.885	-2.870	-8.299	-234.800
1.890	-2.890	-6.482	-200.400
1.895	-2.910	-5.799	-223.300
1.900	-2.920	-6.086	-246.800
1.905	-2.940	-6.482	-215.700
1.910	-2.960	-6.829	-202.300
1.915	-2.980	-6.671	-198.000
1.920	-3.000	-5.288	-179.500
1.925	-3.010	-3.527	-184.200
1.930	-3.010	-2.766	-188.900
1.935	-3.010	-2.531	-181.400
1.940	-3.010	-2.253	-190.700
1.945	-3.000	-2.596	-178.200
1.950	-3.000	-3.313	-141.300
1.955	-3.010	-3.691	-97.800
1.960	-3.010	-4.240	-80.200
1.965	-3.020	-4.905	-76.000
1.970	-3.030	-4.816	-29.900
1.975	-3.040	-4.649	17.800
1.980	-3.050	-5.136	5.400
1.985	-3.070	-5.093	0.500
1.990	-3.080	-4.246	34.800
1.995	-3.080	-3.531	28.800
2.000	-3.080	-1.564	24.300
2.005	-3.060	3.070	44.900
2.010	-3.020	9.585	40.400
2.015	-2.940	16.569	16.300
2.020	-2.830	20.293	-2.700
2.025	-2.720	NaN	-32.300
2.030	-2.600	20.473	-72.900
2.035	-2.490	NaN	-89.100
2.040	-2.370	20.466	-74.300
2.045	-2.260	NaN	-82.000
2.050	-2.150	20.479	-86.500
2.055	-2.040	NaN	-83.900
2.060	-1.930	NaN	-106.300
2.065	-1.810	20.478	-109.200
2.070	-1.700	NaN	-87.200
2.075	-1.590	20.477	-72.700
2.080	-1.480	NaN	-93.100
2.085	-1.380	20.247	-117.800
2.090	-1.270	18.113	-120.400
2.095	-1.190	13.581	-117.200
2.100	-1.130	8.824	-94.300
2.105	-1.090	5.387	-75.800
2.110	-1.060	2.629	-100.100
2.115	-1.050	-0.052	-115.100
2.120	-1.050	-2.390	-101.300
2.125	-1.060	-4.905	-87.300
2.130	-1.090	-7.884	-76.800
2.135	-1.130	-10.236	-90.500
2.140	-1.180	-11.934	-105.400
2.145	-1.240	-14.203	-96.000
2.150	-1.310	-16.374	-111.600
2.155	-1.390	-17.111	-137.800
2.160	-1.470	-17.251	-151.200
2.165	-1.550	-17.438	-145.700
2.170	-1.630	-17.072	-125.100
2.175	-1.710	-16.944	-134.900
2.180	-1.790	-18.111	-113.000
2.185	-1.870	-19.616	-110.900
2.190	-1.960	-20.343	-142.200
2.195	-2.060	NaN	-116.300
2.200	-2.150	-20.395	-102.500
2.205	-2.240	-19.912	-96.800
2.210	-2.330	-19.617	-93.300
2.215	-2.420	-19.751	-106.400
2.220	-2.500	-19.535	-111.800
2.225	-2.590	-19.356	-138.600
2.230	-2.670	-19.656	-84.100
2.235	-2.760	-19.316	52.300
2.240	-2.840	-18.264	214.900
2.245	-2.920	-17.612	431.900
2.250	-2.990	-16.930	539.100
2.255	-3.060	-15.660	461.300
2.260	-3.120	-14.638	261.400
2.265	-3.180	-14.054	5.400
2.270	-3.230	-13.218	-135.600
2.275	-3.280	-12.336	-113.400
2.280	-3.320	-11.756	-54.000
2.285	-3.370	-10.899	-54.200
2.290	-3.400	-9.689	-54.600
2.295	-3.430	-8.734	-38.900
2.300	-3.460	-7.664	-44.600
2.305	-3.480	-6.383	-26.800
2.310	-3.490	-6.109	-29.400
2.315	-3.510	-6.628	-54.300
2.320	-3.520	-6.459	-61.800
2.325	-3.540	-5.608	-55.400
2.330	-3.550	-4.633	-53.300
2.335	-3.550	-3.217	-54.400
2.340	-3.550	-1.684	-75.600
2.345	-3.540	-1.191	-105.900
2.350	-3.530	-1.601	-100.500
2.355	-3.520	-2.237	-90.800
2.360	-3.520	-3.486	-56.500
2.365	-3.520	-4.811	-23.900
2.370	-3.530	-4.681	-21.600
2.375	-3.540	-3.607	-4.100
2.380	-3.540	-3.243	6.300
2.385	-3.540	-3.511	11.100
2.390	-3.540	-3.675	24.200
2.395	-3.540	-3.829	58.600
2.400	-3.540	-3.544	75.300
2.405	-3.540	-1.696	48.100
2.410	-3.530	1.868	24.300
2.415	-3.490	7.181	4.600
2.420	-3.420	14.582	-11.400
2.425	-3.310	19.824	-29.900
2.430	-3.200	NaN	-31.700
2.435	-3.080	20.440	-37.100
2.440	-2.960	NaN	-91.700
2.445	-2.850	20.457	-125.300
2.450	-2.730	NaN	-126.300
2.455	-2.620	20.476	-115.800
2.460	-2.500	NaN	-94.700
2.465	-2.390	NaN	-113.200
2.470	-2.280	NaN	-143.800
2.475	-2.170	20.473	-148.300
2.480	-2.050	NaN	-138.400
2.485	-1.940	20.463	-124.700
2.490	-1.830	NaN	-96.500
2.495	-1.720	19.817	-110.800
2.500	-1.620	16.712	-169.400
2.505	-1.540	12.156	-169.200
2.510	-1.490	7.604	-135.800
2.515	-1.450	3.566	-145.700
2.520	-1.440	0.861	-186.000
2.525	-1.430	-1.228	-179.200
2.530	-1.440	-3.731	-140.500
2.535	-1.450	-6.056	-125.600
2.540	-1.480	-8.065	-129.200
2.545	-1.520	-10.817	-143.700
2.550	-1.580	-13.986	-157.900
2.555	-1.650	-16.153	-162.900
2.560	-1.720	-17.348	-183.200
2.565	-1.800	-18.040	-222.600
2.570	-1.880	-17.980	-225.800
2.575	-1.970	-17.844	-210.000
2.580	-2.050	-18.461	-208.000
2.585	-2.130	-18.963	-193.300
2.590	-2.220	-19.146	-204.300
2.595	-2.300	-19.881	-214.500
2.600	-2.390	-20.459	-197.300
2.605	-2.480	NaN	-195.500
2.610	-2.580	-20.476	-169.700
2.615	-2.670	NaN	-174.500
2.620	-2.750	-20.102	-180.800
2.625	-2.840	-19.393	-192.900
2.630	-2.920	-19.088	-251.400
2.635	-3.000	-18.814	-238.200
2.640	-3.080	-18.503	-153.400
2.645	-3.160	-19.034	-21.500
2.650	-3.250	-19.602	193.400
2.655	-3.330	-19.045	386.100
2.660	-3.410	-18.177	443.900
2.665	-3.480	-17.452	379.700
2.670	-3.550	-16.059	152.300
2.675	-3.610	-14.469	-136.300
2.680	-3.660	-13.677	-267.600
2.685	-3.710	-13.089	-273.600
2.690	-3.760	-12.444	-225.500
2.695	-3.800	-12.463	-182.300
2.700	-3.850	-12.260	-175.100
2.705	-3.890	-10.659	-192.700
2.710	-3.920	-8.544	-220.300
2.715	-3.940	-6.679	-199.400
2.720	-3.950	-4.771	-171.600
2.725	-3.950	-3.483	-148.800
2.730	-3.950	-3.668	-155.400
2.735	-3.950	-4.537	-169.300
2.740	-3.960	-5.072	-137.400
2.745	-3.960	-5.254	-110.100
2.750	-3.970	-4.768	-131.200
2.755	-3.970	-3.477	-132.900
2.760	-3.970	-2.693	-107.900
2.765	-3.970	-2.851	-96.200
2.770	-3.960	-2.816	-44.600
2.775	-3.960	-2.534	-35.300
2.780	-3.950	-2.449	-52.800
2.785	-3.950	-2.126	-2.000
2.790	-3.940	-1.869	16.300
2.795	-3.930	-2.610	-7.700
2.800	-3.930	-3.568	21.200
2.805	-3.930	-3.596	75.200
2.810	-3.930	-3.365	90.800
2.815	-3.930	-2.986	90.400
2.820	-3.920	-0.622	63.600
2.825	-3.890	3.936	42.800
2.830	-3.840	10.049	48.900
2.835	-3.750	16.962	15.400
2.840	-3.640	20.404	-26.600
2.845	-3.520	20.448	-40.000
2.850	-3.400	NaN	-46.300
2.855	-3.290	NaN	-62.400
2.860	-3.170	20.471	-101.400
2.865	-3.050	NaN	-101.000
2.870	-2.940	20.479	-83.500
2.875	-2.820	NaN	-91.400
2.880	-2.710	NaN	-89.000
2.885	-2.590	20.476	-96.400
2.890	-2.480	NaN	-109.100
2.895	-2.360	20.474	-100.300
2.900	-2.250	NaN	-91.400
2.905	-2.140	20.124	-102.200
2.910	-2.030	17.321	-99.300
2.915	-1.950	12.227	-96.300
2.920	-1.890	7.503	-93.200
2.925	-1.860	3.782	-103.000
2.930	-1.840	0.551	-142.700
2.935	-1.830	-1.731	-144.100
2.940	-1.840	-3.163	-128.800
2.945	-1.850	-4.892	-131.200
2.950	-1.870	-6.816	-123.000
2.955	-1.900	-8.399	-137.900
2.960	-1.940	-10.445	-184.600
2.965	-1.990	-12.935	-180.200
2.970	-2.050	-14.598	-168.600
2.975	-2.110	-15.496	-182.800
2.980	-2.180	-16.236	-172.900
2.985	-2.250	-16.421	-186.900
2.990	-2.330	-16.372	-178.700
2.995	-2.400	-16.963	-159.900
3.000	-2.470	-17.677	-191.400
3.005	-2.550	-18.076	-197.700
3.010	-2.630	-18.951	-186.000
3.015	-2.720	-20.016	-160.800
3.020	-2.810	-20.023	-145.700
3.025	-2.890	-19.534	-164.700
3.030	-2.980	-19.667	-164.200
3.035	-3.060	-19.933	-195.700
3.040	-3.150	-20.137	-210.800
3.045	-3.230	-20.412	-176.100
3.050	-3.320	NaN	-123.300
3.055	-3.410	-20.202	-27.000
3.060	-3.490	-19.579	137.100
3.065	-3.570	-19.087	298.000
3.070	-3.650	-18.435	333.600
3.075	-3.720	-17.750	258.900
3.080	-3.790	-17.503	70.300
3.085	-3.860	-16.810	-148.200
3.090	-3.930	-15.413	-248.400
3.095	-3.980	-14.293	-239.500
3.100	-4.030	-13.161	-201.500
3.105	-4.070	-11.535	-159.300
3.110	-4.110	-10.369	-143.600
3.115	-4.140	-9.531	-150.200
3.120	-4.170	-8.041	-127.000
3.125	-4.180	-6.642	-121.300
3.130	-4.200	-6.159	-113.600
3.135	-4.210	-5.779	-109.200
3.140	-4.210	-5.107	-113.100
3.145	-4.220	-4.804	-99.800
3.150	-4.220	-4.514	-96.300
3.155	-4.220	-3.652	-93.200
3.160	-4.220	-2.966	-102.100
3.165	-4.220	-2.526	-92.400
3.170	-4.210	-1.826	-47.700
3.175	-4.200	-1.564	-60.600
3.180	-4.190	-2.008	-50.700
3.185	-4.180	-1.984	12.400
3.190	-4.170	-1.323	-3.700
3.195	-4.150	-1.183	8.200
3.200	-4.140	-1.456	77.300
3.205	-4.130	-1.682	105.200
3.210	-4.120	-2.649	100.900
3.215	-4.120	-4.246	120.700
3.220	-4.130	-5.072	122.600
3.225	-4.130	-4.907	101.000
3.230	-4.130	-3.445	96.700
3.235	-4.120	0.782	83.300
3.240	-4.080	7.615	71.600
3.245	-4.010	15.313	50.800
3.250	-3.900	19.984	20.900
3.255	-3.780	NaN	-3.200
3.260	-3.660	20.445	-0.500
3.265	-3.540	NaN	24.600
3.270	-3.420	20.460	-24.200
3.275	-3.310	NaN	-91.300
3.280	-3.190	20.476	-39.100
3.285	-3.070	NaN	1.300
3.290	-2.950	NaN	-54.800
3.295	-2.840	20.475	-72.800
3.300	-2.720	NaN	-55.300
3.305	-2.610	20.464	-40.700
3.310	-2.500	NaN	-23.800
3.315	-2.380	19.854	-44.000
3.320	-2.280	17.593	-48.500
3.325	-2.190	14.473	-26.200
3.330	-2.110	10.972	-41.700
3.335	-2.060	7.601	-79.100
3.340	-2.020	4.641	-84.500
3.345	-1.990	1.239	-42.300
3.350	-1.990	-2.102	-35.200
3.355	-2.000	-4.301	-92.800
3.360	-2.010	-5.893	-91.300
3.365	-2.040	-7.464	-50.700
3.370	-2.070	-8.731	-65.400
3.375	-2.100	-10.004	-106.400
3.380	-2.150	-11.696	-143.800
3.385	-2.200	-13.384	-139.800
3.390	-2.260	-15.004	-118.900
3.395	-2.330	-16.728	-114.400
3.400	-2.410	-17.642	-93.500
3.405	-2.480	-17.255	-74.300
3.410	-2.560	-16.874	-97.600
3.415	-2.630	-17.230	-111.900
3.420	-2.710	-17.666	-93.900
3.425	-2.780	-18.399	-92.300
3.430	-2.870	-19.702	-95.900
3.435	-2.950	-20.456	-104.100
3.440	-3.040	-20.477	-94.100
3.445	-3.130	NaN	-72.900
3.450	-3.220	-20.435	-98.900
3.455	-3.300	-19.961	-108.200
3.460	-3.390	-19.461	-51.500
3.465	-3.470	-19.358	64.800
3.470	-3.550	-19.282	227.100
3.475	-3.630	-19.618	329.500
3.480	-3.710	-20.097	283.500
3.485	-3.790	-19.037	158.300
3.490	-3.870	-16.751	-23.000
3.495	-3.930	-15.139	-173.200
3.500	-3.980	-14.128	-190.400
3.505	-4.030	-12.876	-154.700
3.510	-4.070	-12.008	-96.400
3.515	-4.110	-11.709	-74.200
3.520	-4.150	-10.958	-93.900
3.525	-4.190	-9.691	-85.800
3.530	-4.210	-8.472	-93.600
3.535	-4.230	-7.076	-91.800
3.540	-4.240	-5.821	-64.900
3.545	-4.250	-5.504	-54.600
3.550	-4.260	-5.534	-56.800
3.555	-4.270	-5.038	-62.400
3.560	-4.270	-4.482	-61.000
3.565	-4.270	-4.107	-40.500
3.570	-4.270	-3.284	-16.500
3.575	-4.270	-2.574	-26.800
3.580	-4.260	-2.875	-13.700
3.585	-4.260	-3.396	25.400
3.590	-4.250	-3.483	9.600
3.595	-4.250	-3.513	16.000
3.600	-4.250	-2.972	40.200
3.605	-4.240	-1.546	33.300
3.610	-4.230	-0.787	60.800
3.615	-4.210	-1.381	95.300
3.620	-4.200	-2.184	120.100
3.625	-4.200	-2.877	114.200
3.630	-4.190	-3.652	106.500
3.635	-4.190	-3.001	106.600
3.640	-4.180	0.499	96.800
3.645	-4.150	6.257	96.100
3.650	-4.080	13.778	66.300
3.655	-3.970	19.489	22.600
3.660	-3.850	NaN	-0.700
3.665	-3.730	20.426	27.300
3.670	-3.610	NaN	11.500
3.675	-3.500	20.454	-28.400
3.680	-3.380	NaN	-18.700
3.685	-3.260	20.478	-54.900
3.690	-3.140	NaN	-51.400
3.695	-3.030	NaN	-5.300
3.700	-2.910	NaN	-8.500
3.705	-2.790	20.473	-28.300
3.710	-2.680	NaN	-56.000
3.715	-2.570	20.466	-18.500
3.720	-2.450	NaN	30.000
3.725	-2.340	20.028	-9.400
3.730	-2.230	17.785	-2.400
3.735	-2.140	15.181	12.800
3.740	-2.060	12.701	0.800
3.745	-2.000	8.504	-7.700
3.750	-1.960	3.501	-56.800
3.755	-1.940	-0.413	-53.500
3.760	-1.950	-3.299	-36.700
3.765	-1.960	-5.286	-40.500
3.770	-1.980	-6.084	-14.500
3.775	-2.000	-6.606	-6.500
3.780	-2.030	-7.560	-29.300
3.785	-2.060	-8.414	-67.100
3.790	-2.090	-9.457	-100.600
3.795	-2.130	-11.548	-104.600
3.800	-2.190	-13.946	-103.400
3.805	-2.250	-15.606	-72.200
3.810	-2.320	-16.889	-48.900
3.815	-2.400	-17.839	-88.600
3.820	-2.480	-17.866	-91.500
3.825	-2.560	-17.651	-98.300
3.830	-2.630	-18.110	-128.800
3.835	-2.710	-18.607	-98.800
3.840	-2.790	-18.793	-68.800
3.845	-2.880	-19.409	-73.800
3.850	-2.960	-20.024	-73.500
3.855	-3.050	-19.854	-53.700
3.860	-3.130	-19.581	-56.500
3.865	-3.210	-19.396	-34.300
3.870	-3.290	-18.536	87.300
3.875	-3.370	-17.575	250.900
3.880	-3.440	-17.340	316.800
3.885	-3.510	-16.903	275.000
3.890	-3.580	-15.929	173.500
3.895	-3.640	-15.406	9.600
3.900	-3.700	-14.936	-126.300
3.905	-3.750	-13.794	-167.400
3.910	-3.800	-12.826	-148.800
3.915	-3.850	-12.297	-122.100
3.920	-3.890	-11.261	-61.000
3.925	-3.920	-9.784	-55.800
3.930	-3.950	-8.415	-88.800
3.935	-3.970	-6.915	-67.500
3.940	-3.980	-5.730	-42.700
3.945	-3.990	-5.615	-23.200
3.950	-4.000	-5.439	-15.300
3.955	-4.010	-4.314	-28.800
3.960	-4.010	-3.424	-20.500
3.965	-4.010	-3.224	-34.500
3.970	-4.010	-2.927	-64.600
3.975	-4.000	-2.601	-8.200
3.980	-4.000	-2.538	35.500
3.985	-3.990	-2.178	6.200
3.990	-3.980	-1.818	21.100
3.995	-3.970	-2.126	75.500
4.000	-3.960	-2.023	65.700
4.005	-3.950	-0.916	57.800
4.010	-3.940	-0.257	73.400
4.015	-3.920	-0.986	108.800
4.020	-3.910	-2.479	135.000
4.025	-3.910	-3.869	130.100
4.030	-3.920	-4.534	150.800
4.035	-3.920	-3.969	153.300
4.040	-3.920	-1.684	134.000
4.045	-3.900	2.212	125.000
4.050	-3.850	8.296	139.600
4.055	-3.780	16.073	108.500
4.060	-3.670	20.296	49.600
4.065	-3.550	20.468	57.400
4.070	-3.430	20.479	63.000
4.075	-3.310	NaN	63.700
4.080	-3.190	20.467	46.300
4.085	-3.080	NaN	35.300
4.090	-2.960	20.476	57.500
4.095	-2.840	NaN	25.700
4.100	-2.730	NaN	4.700
4.105	-2.610	NaN	1.600
4.110	-2.500	20.474	19.000
4.115	-2.390	NaN	48.100
4.120	-2.270	20.460	28.500
4.125	-2.160	NaN	42.000
4.130	-2.050	19.539	60.300
4.135	-1.950	16.488	67.700
4.140	-1.870	12.860	87.800
4.145	-1.800	9.431	64.700
4.150	-1.760	6.125	23.800
4.155	-1.730	3.278	19.700
4.160	-1.710	0.470	48.900
4.165	-1.710	-2.124	54.900
4.170	-1.710	-3.929	31.000
4.175	-1.730	-5.755	32.100
4.180	-1.760	-8.201	31.100
4.185	-1.790	-10.153	19.000
4.190	-1.840	-11.232	13.300
4.195	-1.890	-12.344	-7.800
4.200	-1.950	-13.331	3.600
4.205	-2.000	-13.892	16.700
4.210	-2.070	-14.876	-1.300
4.215	-2.140	-16.078	-14.700
4.220	-2.210	-16.484	-40.800
4.225	-2.280	-16.666	-33.900
4.230	-2.350	-17.375	-5.900
4.235	-2.430	-17.964	-7.800
4.240	-2.510	-18.386	-8.800
4.245	-2.590	-19.286	-37.900
4.250	-2.680	-19.851	-22.800
4.255	-2.770	-19.284	23.300
4.260	-2.850	-18.463	37.500
4.265	-2.920	-17.925	40.200
4.270	-3.000	-17.262	53.900
4.275	-3.070	-16.872	105.600
4.280	-3.140	-17.141	182.600
4.285	-3.210	-17.030	319.600
4.290	-3.280	-16.172	371.900
4.295	-3.340	-15.428	281.500
4.300	-3.400	-14.499	160.200
4.305	-3.460	-12.888	-10.900
4.310	-3.500	-11.479	-90.700
4.315	-3.540	-10.491	-70.800
4.320	-3.570	-9.305	-43.600
4.325	-3.600	-8.512	18.500
4.330	-3.630	-8.393	51.300
4.335	-3.650	-7.469	34.000
4.340	-3.670	-5.516	10.600
4.345	-3.670	-4.101	15.200
4.350	-3.680	-3.485	7.300
4.355	-3.670	-2.979	20.700
4.360	-3.670	-2.723	60.500
4.365	-3.670	-2.834	42.100
4.370	-3.670	-2.922	47.600
4.375	-3.660	-3.274	71.300
4.380	-3.670	-4.129	59.100
4.385	-3.670	-4.299	76.000
4.390	-3.670	-3.598	106.700
4.395	-3.670	-3.413	99.100
4.400	-3.680	-3.585	88.700
4.405	-3.680	-3.221	122.000
4.410	-3.670	-2.942	154.700
4.415	-3.670	-3.152	177.800
4.420	-3.670	-3.044	185.000
4.425	-3.670	-2.968	188.200
4.430	-3.670	-3.849	208.300
4.435	-3.670	-4.740	227.000
4.440	-3.680	-4.845	233.600
4.445	-3.690	-4.339	198.700
4.450	-3.690	-1.665	182.000
4.455	-3.670	3.849	187.700
4.460	-3.610	10.714	193.200
4.465	-3.520	17.341	208.900
4.470	-3.410	20.419	179.600
4.475	-3.290	20.453	147.100
4.480	-3.180	NaN	148.100
4.485	-3.060	NaN	136.000
4.490	-2.940	20.472	109.800
4.495	-2.830	NaN	102.200
4.500	-2.710	NaN	122.500
4.505	-2.600	NaN	129.100
4.510	-2.490	NaN	120.000
4.515	-2.370	NaN	113.200
4.520	-2.260	NaN	122.900
4.525	-2.150	NaN	142.300
4.530	-2.040	20.476	135.700
4.535	-1.920	20.402	100.400
4.540	-1.820	18.869	96.800
4.545	-1.720	14.985	113.400
4.550	-1.650	10.447	90.500
4.555	-1.600	6.512	104.000
4.560	-1.570	2.828	130.400
4.565	-1.560	-0.492	112.700
4.570	-1.560	-2.780	95.300
4.575	-1.570	-4.511	91.600
4.580	-1.590	-6.433	121.900
4.585	-1.620	-8.428	141.700
4.590	-1.660	-10.404	117.200
4.595	-1.710	-12.239	76.600
4.600	-1.770	-13.296	35.000
4.605	-1.830	-13.564	54.400
4.610	-1.890	-14.226	63.300
4.615	-1.950	-15.503	27.800
4.620	-2.020	-16.458	68.200
4.625	-2.100	-17.438	79.800
4.630	-2.180	-18.934	18.000
4.635	-2.270	-19.913	3.700
4.640	-2.360	-20.019	24.900
4.645	-2.440	-20.166	58.300
4.650	-2.540	-20.172	65.500
4.655	-2.620	-19.531	50.600
4.660	-2.710	-19.045	37.300
4.665	-2.790	-18.986	29.000
4.670	-2.870	-18.822	50.700
4.675	-2.950	-18.791	67.000
4.680	-3.030	-18.918	80.000
4.685	-3.110	-18.262	128.200
4.690	-3.180	-16.749	190.200
4.695	-3.250	-15.480	279.200
4.700	-3.310	-14.565	367.300
4.705	-3.370	-13.666	368.400
4.710	-3.420	-13.445	281.600
4.715	-3.470	-13.606	93.900
4.720	-3.520	-12.644	-63.200
4.725	-3.560	-10.720	-63.100
4.730	-3.590	-8.994	-25.600
4.735	-3.620	-7.316	21.400
4.740	-3.630	-5.604	65.000
4.745	-3.640	-4.540	57.800
4.750	-3.650	-3.882	33.600
4.755	-3.650	-3.316	43.100
4.760	-3.650	-3.638	62.200
4.765	-3.650	-4.658	50.400
4.770	-3.660	-4.929	46.400
4.775	-3.670	-4.439	67.800
4.780	-3.670	-3.963	60.200
4.785	-3.670	-3.365	9.600
4.790	-3.670	-2.939	23.600
4.795	-3.670	-3.291	68.700
4.800	-3.670	-3.868	81.100
4.805	-3.670	-4.022	101.700
4.810	-3.680	-4.321	107.300
4.815	-3.680	-4.941	105.400
4.820	-3.690	-4.867	114.200
4.825	-3.700	-4.046	120.000
4.830	-3.700	-3.354	163.000
4.835	-3.700	-2.978	210.900
4.840	-3.700	-3.495	196.200
4.845	-3.700	-5.352	184.400
4.850	-3.710	-6.808	219.200
4.855	-3.730	-6.311	211.800
4.860	-3.740	-4.079	190.300
4.865	-3.730	0.091	203.300
4.870	-3.700	6.671	165.300
4.875	-3.630	14.647	131.000
4.880	-3.530	19.795	163.200
4.885	-3.410	NaN	151.100
4.890	-3.290	20.439	86.300
4.895	-3.170	NaN	82.500
4.900	-3.060	20.460	97.900
4.905	-2.940	NaN	89.300
4.910	-2.830	20.479	73.900
4.915	-2.710	NaN	52.400
4.920	-2.600	NaN	90.700
4.925	-2.480	20.476	107.500
4.930	-2.370	NaN	56.400
4.935	-2.250	20.477	51.800
4.940	-2.140	NaN	65.200
4.945	-2.030	20.332	56.300
4.950	-1.920	18.849	72.100
4.955	-1.830	15.957	86.600
4.960	-1.750	12.279	50.000
4.965	-1.690	8.293	48.600
4.970	-1.650	5.003	71.800
4.975	-1.620	1.991	65.700
4.980	-1.620	-1.398	70.100
4.985	-1.620	-4.234	72.500
4.990	-1.640	-6.281	55.300
4.995	-1.670	-8.545	49.900
5.000	-1.710	-10.844	50.700
5.005	-1.760	-12.526	25.300
5.010	-1.820	-14.160	16.900
5.015	-1.890	-15.763	-1.100
5.020	-1.960	-16.386	5.000
5.025	-2.030	-16.626	16.000
5.030	-2.110	-17.523	-9.800
5.035	-2.190	-18.434	-13.200
5.040	-2.270	-19.068	-18.100
5.045	-2.360	-19.879	-17.200
5.050	-2.450	-20.358	-5.100
5.055	-2.540	-19.996	-1.800
5.060	-2.630	-19.747	8.900
5.065	-2.710	-20.106	15.700
5.070	-2.800	-20.216	-3.800
5.075	-2.890	-20.219	-25.500
5.080	-2.980	-20.437	-13.800
5.085	-3.070	NaN	-17.100
5.090	-3.150	-20.473	-37.700
5.095	-3.240	-20.236	-15.500
5.100	-3.330	-19.083	27.400
5.105	-3.400	-17.113	95.200
5.110	-3.470	-15.635	208.500
5.115	-3.530	-14.994	325.800
5.120	-3.580	-14.142	366.700
5.125	-3.630	-13.095	322.300
5.130	-3.680	-12.291	196.300
5.135	-3.720	-10.960	17.600
5.140	-3.760	-9.052	-64.800
5.145	-3.780	-7.624	-89.300
5.150	-3.800	-6.484	-96.700
5.155	-3.810	-5.216	-42.200
5.160	-3.820	-4.639	-10.800
5.165	-3.820	-4.641	-24.900
5.170	-3.830	-4.051	-17.800
5.175	-3.830	-3.218	2.400
5.180	-3.830	-2.986	-27.600
5.185	-3.820	-2.774	-34.100
5.190	-3.820	-2.398	-8.000
5.195	-3.810	-2.596	-8.700
5.200	-3.810	-2.856	-1.600
5.205	-3.810	-2.672	6.300
5.210	-3.800	-3.019	19.900
5.215	-3.800	-3.923	29.300
5.220	-3.810	-4.359	29.400
5.225	-3.810	-4.501	23.500
5.230	-3.820	-4.890	24.900
5.235	-3.820	-4.991	45.000
5.240	-3.830	-4.584	74.700
5.245	-3.830	-4.433	115.500
5.250	-3.840	-4.599	115.600
5.255	-3.850	-4.919	114.900
5.260	-3.850	-5.824	135.300
5.265	-3.870	-6.682	125.100
5.270	-3.880	-6.286	142.100
5.275	-3.890	-4.774	131.200
5.280	-3.890	-2.013	114.300
5.285	-3.870	2.961	146.900
5.290	-3.820	9.992	110.400
5.295	-3.740	17.078	62.000
5.300	-3.630	20.383	71.400
5.305	-3.510	20.461	59.800
5.310	-3.390	NaN	21.200
5.315	-3.270	NaN	30.900
5.320	-3.150	20.472	68.600
5.325	-3.040	NaN	95.500
5.330	-2.920	20.476	122.400
5.335	-2.810	NaN	102.400
5.340	-2.690	NaN	86.800
5.345	-2.580	NaN	122.400
5.350	-2.460	NaN	133.000
5.355	-2.350	20.466	120.900
5.360	-2.240	20.453	130.500
5.365	-2.130	19.086	142.100
5.370	-2.030	15.784	138.600
5.375	-1.950	11.986	126.000
5.380	-1.890	8.094	117.100
5.385	-1.850	4.674	128.400
5.390	-1.830	1.837	121.700
5.395	-1.820	-1.417	117.700
5.400	-1.830	-4.569	134.500
5.405	-1.850	-6.811	130.000
5.410	-1.880	-8.923	133.800
5.415	-1.920	-11.033	125.700
5.420	-1.970	-12.286	113.600
5.425	-2.020	-13.274	147.200
5.430	-2.080	-14.781	117.200
5.435	-2.150	-16.156	77.400
5.440	-2.220	-17.026	91.500
5.445	-2.300	-17.859	68.300
5.450	-2.380	-18.478	48.300
5.455	-2.460	-18.632	31.900
5.460	-2.540	-19.067	28.200
5.465	-2.630	-19.773	48.300
5.470	-2.720	-20.003	59.700
5.475	-2.810	-20.148	58.700
5.480	-2.890	-20.459	47.300
5.485	-2.980	-20.324	48.500
5.490	-3.070	-19.744	47.600
5.495	-3.150	-19.551	62.100
5.500	-3.240	-19.598	64.800
5.505	-3.320	-19.204	38.500
5.510	-3.400	-19.050	31.000
5.515	-3.480	-19.169	37.500
5.520	-3.560	-18.424	30.600
5.525	-3.630	-17.313	54.900
5.530	-3.700	-16.750	154.500
5.535	-3.760	-15.893	283.400
5.540	-3.820	-14.479	403.600
5.545	-3.870	-13.498	472.800
5.550	-3.920	-12.778	409.900
5.555	-3.960	-11.569	189.400
5.560	-4.000	-10.382	3.500
5.565	-4.030	-9.467	-50.800
5.570	-4.060	-8.201	-43.400
5.575	-4.080	-7.044	-21.800
5.580	-4.090	-6.654	-19.700
5.585	-4.110	-6.225	10.300
5.590	-4.120	-5.514	34.400
5.595	-4.120	-5.338	14.800
5.600	-4.130	-5.259	-0.900
5.605	-4.140	-4.628	-1.700
5.610	-4.140	-4.514	26.000
5.615	-4.150	-5.478	58.300
5.620	-4.160	-6.235	21.000
5.625	-4.170	-6.121	-7.800
5.630	-4.180	-5.844	20.900
5.635	-4.190	-5.900	47.700
5.640	-4.200	-6.381	44.300
5.645	-4.220	-7.251	46.500
5.650	-4.230	-7.588	78.600
5.655	-4.250	-7.174	98.200
5.660	-4.270	-7.383	98.900
5.665	-4.290	-8.166	63.300
5.670	-4.310	-8.173	67.200
5.675	-4.330	-7.669	121.800
5.680	-4.350	-7.778	150.700
5.685	-4.370	-8.151	192.900
5.690	-4.390	-7.979	222.200
5.695	-4.410	-7.440	213.500
5.700	-4.420	-6.049	198.500
5.705	-4.420	-2.649	174.400
5.710	-4.400	2.309	160.500
5.715	-4.360	8.372	160.600
5.720	-4.280	15.636	163.100
5.725	-4.170	20.112	131.600
5.730	-4.050	NaN	75.800
5.735	-3.930	20.458	59.800
5.740	-3.810	NaN	64.900
5.745	-3.690	20.462	68.300
5.750	-3.570	NaN	62.800
5.755	-3.450	20.476	49.800
5.760	-3.330	NaN	34.200
5.765	-3.210	NaN	17.800
5.770	-3.100	20.475	12.900
5.775	-2.980	NaN	7.000
5.780	-2.860	20.466	18.000
5.785	-2.750	NaN	37.700
5.790	-2.630	19.709	27.300
5.795	-2.530	16.524	14.100
5.800	-2.450	12.157	8.800
5.805	-2.390	8.382	-6.800
5.810	-2.340	4.775	-22.500
5.815	-2.320	1.191	-31.700
5.820	-2.310	-1.673	-10.300
5.825	-2.310	-4.309	12.600
5.830	-2.330	-7.394	-18.300
5.835	-2.370	-10.051	-55.800
5.840	-2.410	-11.976	-50.300
5.845	-2.460	-13.989	-32.200
5.850	-2.530	-15.869	-22.100
5.855	-2.600	-17.133	-32.900
5.860	-2.670	-18.314	-74.000
5.865	-2.760	-19.344	-93.500
5.870	-2.840	-19.519	-60.800
5.875	-2.930	-19.523	-50.700
5.880	-3.010	-20.096	-104.700
5.885	-3.100	-20.478	-110.400
5.890	-3.190	-20.475	-77.100
5.895	-3.270	NaN	-83.700
5.900	-3.360	NaN	-95.800
5.905	-3.450	NaN	-102.300
5.910	-3.530	NaN	-100.000
5.915	-3.620	-20.476	-90.400
5.920	-3.710	NaN	-73.100
5.925	-3.790	-20.473	-69.900
5.930	-3.880	NaN	-106.600
5.935	-3.960	-20.268	-129.700
5.940	-4.040	-19.636	-131.600
5.945	-4.120	-19.263	-146.700
5.950	-4.200	-18.592	-111.700
5.955	-4.260	-16.784	33.000
5.960	-4.320	-15.058	232.800
5.965	-4.380	-14.269	416.700
5.970	-4.430	-13.588	481.100
5.975	-4.470	-12.750	405.900
5.980	-4.510	-12.195	232.300
5.985	-4.550	-11.591	-14.200
5.990	-4.590	-10.786	-168.200
5.995	-4.620	-10.091	-150.600
6.000	-4.650	-8.930	-120.600
6.005	-4.670	-7.058	-128.200
6.010	-4.670	-5.734	-100.900
6.015	-4.680	-5.367	-80.100
6.020	-4.690	-5.221	-77.300
6.025	-4.690	-5.518	-93.400
6.030	-4.700	-6.327	-117.100
6.035	-4.710	-6.271	-103.500
6.040	-4.720	-5.030	-92.000
6.045	-4.720	-3.930	-100.100
6.050	-4.710	-3.209	-61.900
6.055	-4.710	-2.731	-34.600
6.060	-4.700	-3.258	-42.100
6.065	-4.700	-4.284	-30.800
6.070	-4.700	-4.546	-24.900
6.075	-4.700	-4.599	5.000
6.080	-4.700	-5.354	42.200
6.085	-4.710	-6.043	41.100
6.090	-4.720	-6.143	28.000
6.095	-4.730	-6.375	66.300
6.100	-4.740	-7.018	111.200
6.105	-4.750	-8.004	102.500
6.110	-4.780	-9.270	154.400
6.115	-4.800	-9.799	212.300
6.120	-4.830	-8.626	157.300
6.125	-4.840	-6.064	138.800
6.130	-4.840	-2.061	178.000
6.135	-4.820	3.806	162.300
6.140	-4.760	11.269	146.300
6.145	-4.660	18.030	154.800
6.150	-4.540	NaN	117.400
6.155	-4.420	20.429	100.200
6.160	-4.290	NaN	101.600
6.165	-4.170	20.475	46.000
6.170	-4.050	NaN	35.000
6.175	-3.930	NaN	28.100
6.180	-3.810	NaN	8.000
6.185	-3.690	NaN	47.300
6.190	-3.570	NaN	37.100
6.195	-3.450	20.475	10.000
6.200	-3.340	NaN	20.600
6.205	-3.220	20.461	14.700
6.210	-3.100	NaN	-14.300
6.215	-2.990	19.618	-11.000
6.220	-2.880	16.623	26.000
6.225	-2.800	12.486	14.200
6.230	-2.730	8.143	-39.300
6.235	-2.690	4.360	-39.300
6.240	-2.660	1.369	-3.900
6.245	-2.650	-1.711	16.000
6.250	-2.660	-4.711	13.300
6.255	-2.670	-7.428	-18.400
6.260	-2.710	-10.583	-8.500
6.265	-2.750	-13.594	-10.000
6.270	-2.810	-15.103	-28.200
6.275	-2.880	-15.732	-4.500
6.280	-2.950	-16.747	6.500
6.285	-3.020	-17.711	-17.200
6.290	-3.100	-18.559	-54.800
6.295	-3.180	-19.787	-70.700
6.300	-3.260	-20.469	-61.700
6.305	-3.350	-20.474	-45.600
6.310	-3.440	NaN	-72.900
6.315	-3.520	NaN	-64.900
6.320	-3.610	-20.479	-42.100
6.325	-3.700	NaN	-84.000
6.330	-3.780	NaN	-49.500
6.335	-3.870	NaN	-19.400
6.340	-3.950	NaN	-71.200
6.345	-4.040	NaN	-87.700
6.350	-4.120	-20.478	-53.600
6.355	-4.200	NaN	-42.600
6.360	-4.290	-20.473	-73.300
6.365	-4.370	NaN	-94.400
6.370	-4.450	-20.057	-116.700
6.375	-4.530	-19.112	-92.900
6.380	-4.600	-18.316	40.400
6.385	-4.670	-17.306	238.900
6.390	-4.730	-16.093	417.500
6.395	-4.790	-15.516	515.500
6.400	-4.840	-15.063	504.900
6.405	-4.890	-13.986	358.900
6.410	-4.940	-12.854	110.900
6.415	-4.970	-11.762	-130.500
6.420	-5.010	-10.010	-200.400
6.425	-5.030	-8.243	-116.400
6.430	-5.040	-7.314	-44.300
6.435	-5.060	-6.517	26.500
6.440	-5.060	-5.609	118.100
6.445	-5.070	-5.317	115.900
6.450	-5.070	-5.138	78.100
6.455	-5.070	-4.554	64.800
6.460	-5.070	-4.469	33.200
6.465	-5.070	-4.820	23.600
6.470	-5.070	-4.690	26.800
6.475	-5.070	-4.561	-4.000
6.480	-5.070	-5.248	-9.700
6.485	-5.080	-6.029	15.500
6.490	-5.080	-6.242	7.000
6.495	-5.090	-6.481	26.200
6.500	-5.100	-6.641	29.300
6.505	-5.110	-6.211	1.800
6.510	-5.120	-5.926	2.300
6.515	-5.120	-6.053	48.600
6.520	-5.130	-5.800	109.200
6.525	-5.130	-5.659	118.300
6.530	-5.140	-6.233	133.100
6.535	-5.150	-6.558	177.700
6.540	-5.160	-6.398	228.200
6.545	-5.170	-6.634	237.600
6.550	-5.180	-6.444	223.300
6.555	-5.180	-4.089	226.100
6.560	-5.170	0.299	218.900
6.565	-5.130	5.878	231.200
6.570	-5.060	13.047	225.000
6.575	-4.950	19.065	205.400
6.580	-4.830	NaN	171.500
6.585	-4.710	20.421	142.100
6.590	-4.580	NaN	105.800
6.595	-4.460	20.460	101.800
6.600	-4.340	NaN	133.800
6.605	-4.210	NaN	111.300
6.610	-4.090	NaN	124.500
6.615	-3.970	NaN	120.400
6.620	-3.850	NaN	107.000
6.625	-3.730	20.474	124.000
6.630	-3.610	NaN	105.100
6.635	-3.490	20.459	103.100
6.640	-3.380	NaN	126.400
6.645	-3.260	19.310	126.900
6.650	-3.160	15.683	127.000
6.655	-3.080	11.511	143.400
6.660	-3.010	7.683	122.100
6.665	-2.970	3.962	99.600
6.670	-2.950	0.804	122.200
6.675	-2.940	-2.472	132.400
6.680	-2.940	-6.047	136.200
6.685	-2.970	-8.527	122.900
6.690	-3.000	-9.782	121.100
6.695	-3.040	-11.097	132.900
6.700	-3.080	-12.398	130.400
6.705	-3.130	-13.199	137.000
6.710	-3.190	-14.243	133.600
6.715	-3.250	-15.520	113.200
6.720	-3.310	-16.235	101.200
6.725	-3.380	-16.854	123.800
6.730	-3.450	-17.953	146.400
6.735	-3.530	-18.674	199.200
6.740	-3.600	-19.020	235.200
6.745	-3.690	-19.874	206.600
6.750	-3.770	-20.464	200.200
6.755	-3.850	-20.476	213.300
6.760	-3.940	NaN	208.200
6.765	-4.020	NaN	184.600
6.770	-4.110	NaN	179.800
6.775	-4.190	-20.478	174.300
6.780	-4.270	-20.463	158.500
6.785	-4.350	-19.975	144.800
6.790	-4.430	-19.225	142.500
6.795	-4.510	-19.260	141.300
6.800	-4.580	-19.422	131.300
6.805	-4.660	-18.867	201.500
6.810	-4.730	-18.295	373.000
6.815	-4.800	-17.858	516.800
6.820	-4.860	-16.756	561.600
6.825	-4.920	-15.194	542.000
6.830	-4.970	-13.904	396.000
6.835	-5.010	-12.684	122.100
6.840	-5.050	-11.481	-39.600
6.845	-5.080	-10.682	-6.300
6.850	-5.110	-9.831	7.800
6.855	-5.130	-8.509	6.400
6.860	-5.150	-7.364	36.600
6.865	-5.160	-6.360	45.700
6.870	-5.170	-5.015	45.400
6.875	-5.160	-4.276	43.600
6.880	-5.160	-4.576	65.900
6.885	-5.160	-4.854	77.600
6.890	-5.160	-4.643	78.700
6.895	-5.160	-4.353	100.800
6.900	-5.160	-4.152	106.200
6.905	-5.160	-4.339	73.800
6.910	-5.160	-5.326	84.300
6.915	-5.160	-6.056	116.800
6.920	-5.170	-5.429	131.100
6.925	-5.170	-4.533	151.600
6.930	-5.170	-4.456	139.600
6.935	-5.170	-4.471	138.600
6.940	-5.160	-4.222	166.000
6.945	-5.160	-4.421	217.300
6.950	-5.160	-4.718	264.000
6.955	-5.160	-4.679	267.800
6.960	-5.160	-5.205	288.600
6.965	-5.170	-6.218	312.000
6.970	-5.180	-6.696	300.800
6.975	-5.190	-6.648	310.600
6.980	-5.190	-5.674	318.900
6.985	-5.190	-1.974	292.300
6.990	-5.160	4.231	298.900
6.995	-5.100	11.333	261.800
7.000	-5.000	17.799	199.700
7.005	-4.880	NaN	190.200
7.010	-4.760	20.438	157.500
7.015	-4.630	NaN	136.700
7.020	-4.510	20.479	139.000
7.025	-4.390	20.477	137.600
7.030	-4.260	NaN	119.100
7.035	-4.140	NaN	105.600
7.040	-4.020	NaN	121.600
7.045	-3.900	NaN	127.800
7.050	-3.780	20.476	113.900
7.055	-3.660	NaN	97.300
7.060	-3.540	20.468	144.000
7.065	-3.430	NaN	147.200
7.070	-3.310	19.725	100.400
7.075	-3.200	16.563	137.000
7.080	-3.120	11.863	136.600
7.085	-3.050	7.786	115.600
7.090	-3.010	4.711	117.600
7.095	-2.980	1.909	98.500
7.100	-2.960	-0.614	97.000
7.105	-2.960	-2.808	100.300
7.110	-2.960	-5.375	110.000
7.115	-2.980	-7.906	126.300
7.120	-3.010	-9.369	141.000
7.125	-3.050	-10.367	135.200
7.130	-3.090	-11.808	89.000
7.135	-3.140	-13.112	81.000
7.140	-3.190	-14.206	95.200
7.145	-3.250	-15.818	94.000
7.150	-3.320	-17.371	104.300
7.155	-3.390	-18.218	87.300
7.160	-3.470	-18.894	84.900
7.165	-3.550	-19.414	107.900
7.170	-3.630	-19.448	91.900
7.175	-3.710	-19.806	60.100
7.180	-3.800	-20.391	48.900
7.185	-3.880	NaN	87.900
7.190	-3.970	-20.476	103.700
7.195	-4.050	NaN	87.800
7.200	-4.130	-20.477	104.400
7.205	-4.220	NaN	93.900
7.210	-4.300	-20.474	84.300
7.215	-4.380	-20.151	115.000
7.220	-4.460	-19.178	108.800
7.225	-4.530	-18.248	164.400
7.230	-4.600	-17.867	348.100
7.235	-4.670	-17.253	485.800
7.240	-4.730	-16.437	520.700
7.245	-4.790	-16.423	452.200
7.250	-4.850	-16.393	264.500
7.255	-4.910	-15.145	44.800
7.260	-4.960	-13.553	-58.600
7.265	-5.000	-12.332	-14.800
7.270	-5.040	-11.080	39.500
7.275	-5.060	-10.038	67.100
7.280	-5.090	-9.318	91.300
7.285	-5.110	-8.034	62.100
7.290	-5.120	-6.404	21.700
7.295	-5.130	-5.628	36.000
7.300	-5.130	-5.241	69.100
7.305	-5.130	-4.289	80.900
7.310	-5.130	-3.573	42.700
7.315	-5.120	-3.504	41.100
7.320	-5.120	-3.384	68.500
7.325	-5.110	-3.717	51.500
7.330	-5.110	-4.768	88.100
7.335	-5.110	-5.159	109.200
7.340	-5.110	-4.653	104.900
7.345	-5.110	-4.354	109.900
7.350	-5.110	-4.029	108.300
7.355	-5.100	-3.290	147.700
7.360	-5.100	-3.076	147.300
7.365	-5.090	-3.411	140.200
7.370	-5.080	-3.549	189.300
7.375	-5.080	-4.091	226.100
7.380	-5.080	-5.373	247.800
7.385	-5.080	-6.046	239.100
7.390	-5.090	-5.803	221.700
7.395	-5.100	-5.334	232.400
7.400	-5.090	-3.052	242.400
7.405	-5.070	2.279	221.300
7.410	-5.020	9.752	200.700
7.415	-4.930	17.183	191.200
7.420	-4.810	20.448	151.000
7.425	-4.690	20.441	143.800
7.430	-4.560	NaN	133.000
7.435	-4.440	NaN	112.800
7.440	-4.320	20.474	98.600
7.445	-4.200	NaN	49.100
7.450	-4.080	NaN	66.100
7.455	-3.950	NaN	97.700
7.460	-3.830	NaN	70.300
7.465	-3.710	NaN	75.700
7.470	-3.590	20.477	98.800
7.475	-3.480	NaN	113.200
7.480	-3.360	20.468	105.200
7.485	-3.240	20.473	84.500
7.490	-3.130	19.398	80.900
7.495	-3.020	15.990	86.000
7.500	-2.940	11.896	90.500
7.505	-2.880	8.523	84.100
7.510	-2.830	4.975	89.700
7.515	-2.800	1.253	82.800
7.520	-2.790	-1.543	57.700
7.525	-2.790	-3.749	81.600
7.530	-2.800	-6.035	106.000
7.535	-2.820	-7.741	69.800
7.540	-2.850	-8.911	62.700
7.545	-2.890	-10.505	62.800
7.550	-2.930	-12.293	33.600
7.555	-2.980	-13.808	48.500
7.560	-3.040	-15.318	38.300
7.565	-3.110	-16.387	26.700
7.570	-3.180	-16.508	30.400
7.575	-3.240	-16.591	7.200
7.580	-3.310	-17.334	21.800
7.585	-3.390	-17.961	46.800
7.590	-3.460	-18.246	30.800
7.595	-3.540	-18.901	46.800
7.600	-3.620	-19.594	63.400
7.605	-3.700	-19.701	11.300
7.610	-3.780	-19.670	-12.900
7.615	-3.860	-19.529	20.300
7.620	-3.940	-18.706	52.200
7.625	-4.010	-17.822	77.200
7.630	-4.080	-17.606	95.400
7.635	-4.150	-17.316	105.000
7.640	-4.220	-16.736	136.300
7.645	-4.280	-16.536	221.800
7.650	-4.340	-16.121	344.400
7.655	-4.400	-14.976	397.700
7.660	-4.450	-14.010	309.200
7.665	-4.500	-13.304	181.600
7.670	-4.540	-12.038	41.200
7.675	-4.580	-10.671	-71.300
7.680	-4.610	-9.880	-41.800
7.685	-4.630	-8.954	17.700
7.690	-4.660	-7.773	48.900
7.695	-4.670	-7.201	51.600
7.700	-4.680	-6.401	-2.400
7.705	-4.690	-4.215	-0.300
7.710	-4.680	-2.359	32.700
7.715	-4.670	-2.483	19.800
7.720	-4.670	-3.268	13.800
7.725	-4.660	-3.712	26.200
7.730	-4.660	-4.099	51.600
7.735	-4.660	-3.898	24.000
7.740	-4.660	-3.425	26.200
7.745	-4.650	-3.751	66.500
7.750	-4.650	-4.062	50.300
7.755	-4.650	-3.562	89.800
7.760	-4.650	-3.356	98.600
7.765	-4.640	-3.794	45.700
7.770	-4.640	-3.854	84.800
7.775	-4.640	-3.683	123.800
7.780	-4.640	-3.961	115.200
7.785	-4.630	-4.247	151.300
7.790	-4.640	-4.644	183.400
7.795	-4.640	-5.628	185.100
7.800	-4.650	-6.113	171.400
7.805	-4.660	-5.343	141.500
7.810	-4.660	-3.618	164.700
7.815	-4.650	-0.098	196.600
7.820	-4.610	5.878	179.800
7.825	-4.540	13.507	167.400
7.830	-4.440	19.264	145.300
7.835	-4.320	NaN	118.500
7.840	-4.200	20.425	117.300
7.845	-4.070	NaN	98.700
7.850	-3.950	20.461	95.800
7.855	-3.830	NaN	75.600
7.860	-3.710	NaN	42.800
7.865	-3.590	NaN	49.000
7.870	-3.480	NaN	33.900
7.875	-3.360	NaN	26.600
7.880	-3.240	NaN	20.700
7.885	-3.120	NaN	28.100
7.890	-3.010	NaN	51.300
7.895	-2.890	20.471	66.100
7.900	-2.770	20.447	44.800
7.905	-2.660	19.162	24.000
7.910	-2.560	15.529	49.600
7.915	-2.480	11.129	45.800
7.920	-2.430	7.474	52.100
7.925	-2.390	4.046	69.100
7.930	-2.370	0.416	64.300
7.935	-2.360	-2.382	54.400
7.940	-2.370	-4.337	38.300
7.945	-2.380	-6.731	41.700
7.950	-2.410	-9.177	30.600
7.955	-2.450	-10.762	26.700
7.960	-2.500	-12.068	22.200
7.965	-2.550	-13.348	-25.400
7.970	-2.610	-13.967	-46.800
7.975	-2.670	-14.395	-42.200
7.980	-2.730	-15.471	-26.400
7.985	-2.790	-16.541	-19.700
7.990	-2.870	-17.291	-25.300
7.995	-2.940	-18.455	-27.700
8.000	-3.020	-19.541	-50.500
8.005	-3.110	-19.819	-58.800
8.010	-3.190	-19.854	-44.600
8.015	-3.280	-19.703	-31.900
8.020	-3.360	-18.959	-18.800
8.025	-3.440	-18.418	-19.200
8.030	-3.510	-18.654	-8.600
8.035	-3.590	-18.744	21.500
8.040	-3.670	-18.262	-16.800
8.045	-3.740	-17.874	-50.700
8.050	-3.810	-17.385	2.600
8.055	-3.880	-16.387	48.600
8.060	-3.940	-15.592	122.300
8.065	-4.000	-14.966	272.600
8.070	-4.050	-13.749	337.900
8.075	-4.100	-12.527	277.500
8.080	-4.140	-11.765	180.100
8.085	-4.180	-10.554	9.800
8.090	-4.210	-8.986	-127.300
8.095	-4.230	-8.059	-128.000
8.100	-4.250	-7.288	-82.700
8.105	-4.260	-5.997	-44.200
8.110	-4.270	-4.992	-21.800
8.115	-4.270	-4.332	-15.800
8.120	-4.270	-3.127	-15.400
8.125	-4.270	-2.402	-21.500
8.130	-4.260	-3.212	-27.000
8.135	-4.260	-4.058	-8.300
8.140	-4.260	-3.985	6.700
8.145	-4.260	-3.795	-3.800
8.150	-4.260	-3.471	-21.400
8.155	-4.260	-3.137	-18.900
8.160	-4.250	-3.800	-9.100
8.165	-4.260	-4.935	-10.300
8.170	-4.260	-5.397	20.200
8.175	-4.270	-5.577	59.600
8.180	-4.280	-6.014	62.400
8.185	-4.290	-6.104	38.000
8.190	-4.300	-5.640	49.300
8.195	-4.310	-5.362	89.400
8.200	-4.320	-5.236	114.300
8.205	-4.320	-5.085	129.800
8.210	-4.330	-5.466	137.300
8.215	-4.340	-6.016	141.500
8.220	-4.350	-5.745	123.200
8.225	-4.350	-4.429	114.100
8.230	-4.350	-1.496	144.800
8.235	-4.320	3.898	136.000
8.240	-4.270	11.449	122.700
8.245	-4.170	18.204	114.400
8.250	-4.050	NaN	54.900
8.255	-3.930	20.428	39.800
8.260	-3.810	NaN	54.900
8.265	-3.690	20.473	38.100
8.270	-3.570	NaN	48.000
8.275	-3.460	NaN	39.000
8.280	-3.340	NaN	2.800
8.285	-3.220	NaN	-11.900
8.290	-3.100	NaN	-10.700
8.295	-2.990	NaN	34.500
8.300	-2.870	20.479	60.300
8.305	-2.760	NaN	36.400
8.310	-2.640	20.471	9.000
8.315	-2.530	20.473	8.700
8.320	-2.420	19.471	29.800
8.325	-2.310	16.181	32.400
8.330	-2.230	11.732	15.800
8.335	-2.180	7.806	47.100
8.340	-2.140	4.379	81.900
8.345	-2.110	0.859	49.600
8.350	-2.110	-2.439	58.700
8.355	-2.120	-5.022	101.600
8.360	-2.140	-7.343	110.300
8.365	-2.170	-9.573	131.700
8.370	-2.210	-11.092	170.700
8.375	-2.260	-12.232	192.400
8.380	-2.310	-13.765	161.100
8.385	-2.380	-15.319	125.700
8.390	-2.450	-16.652	133.800
8.395	-2.520	-18.011	119.400
8.400	-2.600	-18.806	117.800
8.405	-2.680	-18.736	132.200
8.410	-2.770	-18.811	136.200
8.415	-2.850	-19.318	106.500
8.420	-2.930	-19.497	80.700
8.425	-3.020	-19.664	155.400
8.430	-3.100	-20.229	140.900
8.435	-3.190	-20.440	76.000
8.440	-3.280	-20.109	92.600
8.445	-3.360	-19.877	68.600
8.450	-3.440	-19.448	61.800
8.455	-3.520	-18.495	78.900
8.460	-3.600	-17.899	68.000
8.465	-3.670	-17.571	65.800
8.470	-3.740	-16.538	96.000
8.475	-3.800	-15.363	137.200
8.480	-3.860	-14.799	195.400
8.485	-3.910	-14.082	287.300
8.490	-3.960	-12.874	375.800
8.495	-4.000	-11.984	393.200
8.500	-4.040	-11.111	273.800
8.505	-4.080	-9.544	81.100
8.510	-4.100	-8.179	-67.700
8.515	-4.120	-7.378	-103.700
8.520	-4.140	-6.407	-24.400
8.525	-4.150	-5.701	23.500
8.530	-4.160	-5.615	-20.700
8.535	-4.170	-5.034	-38.000
8.540	-4.170	-3.908	6.600
8.545	-4.170	-3.335	30.600
8.550	-4.170	-3.199	-2.700
8.555	-4.160	-3.201	-22.700
8.560	-4.160	-3.615	8.600
8.565	-4.160	-4.058	7.800
8.570	-4.160	-3.961	-7.800
8.575	-4.160	-4.002	-2.200
8.580	-4.170	-4.762	18.200
8.585	-4.170	-5.263	19.800
8.590	-4.180	-5.237	-15.300
8.595	-4.190	-5.659	-51.400
8.600	-4.200	-6.299	-17.000
8.605	-4.210	-6.461	58.800
8.610	-4.220	-6.764	58.500
8.615	-4.240	-7.205	71.000
8.620	-4.250	-6.789	88.800
8.625	-4.270	-6.152	107.000
8.630	-4.280	-6.263	144.500
8.635	-4.290	-6.263	152.200
8.640	-4.300	-5.574	163.300
8.645	-4.310	-4.530	156.600
8.650	-4.300	-2.024	149.600
8.655	-4.280	2.814	162.300
8.660	-4.240	8.832	139.200
8.665	-4.160	15.445	123.700
8.670	-4.050	19.898	126.800
8.675	-3.930	NaN	70.500
8.680	-3.810	20.442	20.600
8.685	-3.690	NaN	8.100
8.690	-3.570	20.459	2.700
8.695	-3.450	NaN	38.000
8.700	-3.330	NaN	32.000
8.705	-3.210	NaN	-10.200
8.710	-3.100	NaN	-8.800
8.715	-2.980	NaN	15.800
8.720	-2.860	20.474	26.500
8.725	-2.750	NaN	-4.500
8.730	-2.630	20.464	-17.400
8.735	-2.520	NaN	-13.200
8.740	-2.410	19.638	-3.800
8.745	-2.310	16.082	-17.000
8.750	-2.230	11.394	-34.000
8.755	-2.170	7.598	-12.100
8.760	-2.130	3.845	-1.900
8.765	-2.110	-0.028	-5.700
8.770	-2.110	-3.085	-33.300
8.775	-2.120	-5.644	-31.000
8.780	-2.150	-8.200	-14.000
8.785	-2.190	-10.006	-22.100
8.790	-2.230	-11.159	-41.600
8.795	-2.280	-12.759	-39.300
8.800	-2.340	-14.479	-9.200
8.805	-2.400	-15.616	-29.400
8.810	-2.470	-16.698	-52.700
8.815	-2.540	-17.599	-59.100
8.820	-2.620	-17.581	-92.500
8.825	-2.690	-17.418	-95.900
8.830	-2.770	-17.963	-84.000
8.835	-2.850	-18.570	-74.100
8.840	-2.930	-19.029	-82.100
8.845	-3.010	-19.761	-102.600
8.850	-3.100	-20.050	-96.100
8.855	-3.180	-19.497	-77.100
8.860	-3.270	-19.094	-56.700
8.865	-3.350	-18.951	-61.700
8.870	-3.420	-18.341	-70.900
8.875	-3.500	-17.743	-61.800
8.880	-3.570	-17.705	-61.400
8.885	-3.640	-17.445	-77.300
8.890	-3.710	-16.742	-59.300
8.895	-3.780	-16.340	-39.700
8.900	-3.840	-15.687	-77.100
8.905	-3.900	-13.994	-22.800
8.910	-3.940	-12.172	120.800
8.915	-3.980	-10.715	261.300
8.920	-4.010	-9.049	388.400
8.925	-4.040	-7.716	370.700
8.930	-4.050	-7.248	199.700
8.935	-4.070	-6.764	-25.300
8.940	-4.090	-6.076	-151.600
8.945	-4.100	-5.795	-130.300
8.950	-4.100	-5.236	-103.900
8.955	-4.110	-3.910	-115.100
8.960	-4.110	-3.143	-92.100
8.965	-4.100	-3.211	-43.000
8.970	-4.100	-3.127	-54.000
8.975	-4.100	-3.364	-76.900
8.980	-4.100	-4.431	-82.300
8.985	-4.110	-5.426	-69.900
8.990	-4.110	-6.013	-42.400
8.995	-4.130	-6.655	-66.500
9.000	-4.140	-6.869	-82.900
9.005	-4.160	-6.487	-48.600
9.010	-4.170	-6.630	-15.900
9.015	-4.190	-7.020	-22.200
9.020	-4.200	-6.706	-28.300
9.025	-4.210	-6.601	-23.700
9.030	-4.230	-7.352	-17.400
9.035	-4.250	-7.829	37.800
9.040	-4.270	-7.654	68.200
9.045	-4.290	-7.708	56.800
9.050	-4.310	-7.723	88.300
9.055	-4.320	-7.585	127.100
9.060	-4.340	-8.347	145.100
9.065	-4.370	-9.284	165.600
9.070	-4.390	-8.790	166.800
9.075	-4.410	-6.971	171.700
9.080	-4.420	-3.847	188.800
9.085	-4.410	1.550	191.100
9.090	-4.360	8.297	168.500
9.095	-4.290	14.835	138.700
9.100	-4.180	19.434	123.100
9.105	-4.060	NaN	93.800
9.110	-3.940	20.433	76.200
9.115	-3.820	NaN	41.900
9.120	-3.700	20.466	-1.100
9.125	-3.580	NaN	4.800
9.130	-3.460	NaN	28.600
9.135	-3.340	NaN	28.700
9.140	-3.230	NaN	12.300
9.145	-3.110	20.475	-16.900
9.150	-2.990	NaN	-24.100
9.155	-2.880	20.462	8.000
9.160	-2.760	NaN	5.500
9.165	-2.650	19.776	-23.800
9.170	-2.540	17.041	-39.300
9.175	-2.460	13.086	-24.200
9.180	-2.390	8.795	-8.200
9.185	-2.350	4.781	-23.200
9.190	-2.320	1.201	-30.500
9.195	-2.310	-2.519	-11.100
9.200	-2.320	-5.901	-3.300
9.205	-2.350	-8.634	-7.400
9.210	-2.390	-11.403	-27.100
9.215	-2.440	-13.989	-45.200
9.220	-2.500	-15.613	-47.300
9.225	-2.570	-16.900	-38.300
9.230	-2.650	-18.399	-11.900
9.235	-2.730	-19.260	-14.500
9.240	-2.820	-19.500	-66.800
9.245	-2.900	-19.997	-95.600
9.250	-2.990	-20.238	-68.900
9.255	-3.080	-19.839	-89.300
9.260	-3.160	-19.874	-126.200
9.265	-3.250	-20.383	-123.200
9.270	-3.330	-20.418	-99.600
9.275	-3.420	-20.013	-74.800
9.280	-3.500	-19.682	-67.800
9.285	-3.580	-19.256	-80.500
9.290	-3.660	-19.042	-96.400
9.295	-3.740	-19.746	-93.700
9.300	-3.830	-20.443	-98.500
9.305	-3.910	-20.291	-96.800
9.310	-3.990	-19.529	-81.300
9.315	-4.070	-17.819	-94.300
9.320	-4.130	-15.534	-82.600
9.325	-4.190	-14.408	-87.200
9.330	-4.240	-14.356	-126.400
9.335	-4.290	-13.531	-64.600
9.340	-4.330	-12.131	86.000
9.345	-4.370	-11.333	298.300
9.350	-4.410	-10.306	456.900
9.355	-4.430	-8.617	462.700
9.360	-4.450	-7.644	365.500
9.365	-4.470	-7.439	149.900
9.370	-4.490	-6.641	-85.000
9.375	-4.500	-5.472	-169.100
9.380	-4.500	-4.836	-148.200
9.385	-4.500	-4.322	-131.300
9.390	-4.500	-3.919	-114.700
9.395	-4.500	-4.169	-95.800
9.400	-4.500	-4.293	-96.200
9.405	-4.500	-3.856	-106.800
9.410	-4.500	-3.953	-102.300
9.415	-4.500	-4.664	-98.200
9.420	-4.510	-4.983	-110.000
9.425	-4.510	-5.310	-96.700
9.430	-4.520	-6.109	-72.000
9.435	-4.530	-6.375	-53.200
9.440	-4.540	-6.031	-28.400
9.445	-4.550	-6.034	-32.800
9.450	-4.560	-6.193	-25.400
9.455	-4.570	-6.157	-9.400
9.460	-4.580	-6.633	-29.800
9.465	-4.590	-7.599	-19.200
9.470	-4.610	-8.196	25.700
9.475	-4.630	-8.604	46.400
9.480	-4.660	-9.119	75.800
9.485	-4.680	-9.301	103.000
9.490	-4.710	-9.297	113.700
9.495	-4.730	-9.504	138.400
9.500	-4.760	-9.249	155.300
9.505	-4.780	-7.728	147.000
9.510	-4.790	-4.734	144.700
9.515	-4.780	0.297	148.700
9.520	-4.740	7.511	137.100
9.525	-4.660	15.388	113.800
9.530	-4.550	19.994	119.700
9.535	-4.420	NaN	119.500
9.540	-4.300	20.448	39.900
9.545	-4.180	NaN	5.000
9.550	-4.060	20.463	12.200
9.555	-3.940	NaN	13.000
9.560	-3.820	NaN	11.500
9.565	-3.700	NaN	-15.700
9.570	-3.580	NaN	-15.800
9.575	-3.460	20.474	-8.400
9.580	-3.340	NaN	-4.100
9.585	-3.230	20.472	-9.100
9.590	-3.110	NaN	-36.600
9.595	-2.990	20.186	-57.300
9.600	-2.880	17.930	-42.400
9.605	-2.790	14.026	-28.500
9.610	-2.720	9.601	-60.200
9.615	-2.670	4.988	-45.400
9.620	-2.640	1.232	-8.200
9.625	-2.630	-1.922	-41.300
9.630	-2.640	-5.348	-83.300
9.635	-2.660	-8.332	-71.700
9.640	-2.700	-10.592	-37.700
9.645	-2.740	-12.821	-62.100
9.650	-2.800	-14.494	-117.500
9.655	-2.860	-15.238	-77.600
9.660	-2.920	-16.246	-19.700
9.665	-3.000	-17.703	-37.100
9.670	-3.070	-18.613	-38.000
9.675	-3.150	-19.378	-64.000
9.680	-3.240	-20.244	-120.400
9.685	-3.330	NaN	-129.100
9.690	-3.410	-20.470	-126.400
9.695	-3.500	NaN	-97.200
9.700	-3.590	-20.475	-75.200
9.705	-3.670	NaN	-122.000
9.710	-3.760	NaN	-144.000
9.715	-3.840	-20.479	-140.600
9.720	-3.930	NaN	-148.300
9.725	-4.010	-20.475	-137.000
9.730	-4.090	-20.473	-110.700
9.735	-4.180	-20.021	-93.000
9.740	-4.260	-19.081	-95.100
9.745	-4.330	-18.424	-85.500
9.750	-4.400	-17.497	-89.200
9.755	-4.460	-15.784	-126.200
9.760	-4.520	-14.420	-130.700
9.765	-4.570	-13.679	-109.800
9.770	-4.610	-12.660	-52.800
9.775	-4.650	-11.567	147.200
9.780	-4.690	-10.884	401.600
9.785	-4.720	-9.987	547.900
9.790	-4.740	-8.879	544.700
9.795	-4.760	-8.301	422.300
9.800	-4.780	-7.788	184.400
9.805	-4.800	-6.889	-119.000
9.810	-4.810	-6.408	-236.000
9.815	-4.820	-6.169	-188.200
9.820	-4.820	-5.125	-142.500
9.825	-4.820	-3.912	-109.600
9.830	-4.820	-3.376	-105.700
9.835	-4.810	-2.792	-133.300
9.840	-4.800	-2.089	-126.300
9.845	-4.790	-2.277	-88.500
9.850	-4.780	-3.094	-94.900
9.855	-4.780	-3.796	-89.500
9.860	-4.780	-4.742	-105.300
9.865	-4.780	-5.603	-110.900
9.870	-4.790	-5.513	-61.800
9.875	-4.790	-5.288	-60.200
9.880	-4.800	-5.883	-73.300
9.885	-4.810	-6.544	-67.000
9.890	-4.820	-6.853	-45.800
9.895	-4.830	-7.516	-2.400
9.900	-4.850	-8.102	2.000
9.905	-4.870	-7.985	-0.400
9.910	-4.890	-7.933	33.200
9.915	-4.900	-8.286	65.500
9.920	-4.920	-8.422	93.400
9.925	-4.940	-8.152	119.800
9.930	-4.960	-8.146	146.500
9.935	-4.980	-7.918	158.700
9.940	-4.990	-6.111	163.400
9.945	-4.990	-2.377	163.600
9.950	-4.960	3.328	161.500
9.955	-4.910	10.849	156.100
9.960	-4.810	17.804	118.100
9.965	-4.690	NaN	92.500
9.970	-4.570	20.438	100.200
9.975	-4.450	NaN	77.800
9.980	-4.320	20.477	30.800
9.985	-4.200	20.479	13.100
9.990	-4.080	NaN	9.200
9.995	-3.960	NaN	-14.400
10.000	-3.840	NaN	-21.300
10.005	-3.720	NaN	-5.500
10.010	-3.600	20.476	-11.300
10.015	-3.480	NaN	-12.000
10.020	-3.360	20.477	-24.500
10.025	-3.250	NaN	-42.800
10.030	-3.130	20.273	-41.700
10.035	-3.020	18.166	-55.200
10.040	-2.920	13.954	-61.100
10.045	-2.850	9.361	-63.500
10.050	-2.800	5.547	-45.300
10.055	-2.770	2.638	-45.800
10.060	-2.750	-0.563	-49.300
10.065	-2.750	-4.361	-16.400
10.070	-2.770	-7.734	-30.300
10.075	-2.800	-10.731	-62.600
10.080	-2.850	-13.523	-58.200
10.085	-2.910	-15.136	-36.000
10.090	-2.970	-15.798	-39.000
10.095	-3.040	-16.889	-72.200
10.100	-3.120	-18.122	-83.400
10.105	-3.190	-18.796	-60.000
10.110	-3.270	-19.488	-56.600
10.115	-3.360	-20.096	-89.500
10.120	-3.440	-19.920	-85.100
10.125	-3.530	-19.688	-83.400
10.130	-3.610	-20.064	-113.100
10.135	-3.690	-20.129	-118.600
10.140	-3.780	-19.946	-138.700
10.145	-3.860	-20.264	-142.600
10.150	-3.940	NaN	-99.900
10.155	-4.030	-20.470	-82.100
10.160	-4.110	NaN	-99.900
10.165	-4.190	-20.295	-101.300
10.170	-4.270	-19.552	-76.400
10.175	-4.350	-18.696	-70.800
10.180	-4.420	-18.151	-69.300
10.185	-4.490	-17.215	-75.200
10.190	-4.550	-16.236	-92.200
10.195	-4.610	-16.237	-82.400
10.200	-4.670	-16.344	-38.600
10.205	-4.730	-15.440	63.500
10.210	-4.780	-14.120	252.500
10.215	-4.830	-12.846	464.100
10.220	-4.870	-11.183	550.100
10.225	-4.900	-9.553	525.100
10.230	-4.920	-8.441	384.800
10.235	-4.940	-7.136	124.400
10.240	-4.950	-5.793	-97.800
10.245	-4.950	-5.209	-173.300
10.250	-4.950	-4.701	-119.000
10.255	-4.950	-3.739	-72.400
10.260	-4.940	-3.123	-82.500
10.265	-4.940	-2.848	-69.300
10.270	-4.930	-2.099	-42.100
10.275	-4.910	-1.383	-34.600
10.280	-4.900	-1.469	-39.400
10.285	-4.880	-1.783	-44.200
10.290	-4.870	-2.146	-30.100
10.295	-4.860	-3.091	-26.400
10.300	-4.860	-3.999	-32.000
10.305	-4.860	-4.306	-5.900
10.310	-4.860	-4.775	23.500
10.315	-4.860	-5.442	26.700
10.320	-4.860	-5.550	21.500
10.325	-4.870	-5.555	21.200
10.330	-4.880	-6.136	42.900
10.335	-4.890	-6.539	91.900
10.340	-4.900	-6.331	121.700
10.345	-4.910	-6.148	125.900
10.350	-4.910	-5.911	135.100
10.355	-4.920	-5.632	163.100
10.360	-4.920	-6.094	194.600
10.365	-4.940	-6.925	200.900
10.370	-4.950	-7.060	221.900
10.375	-4.960	-6.381	241.200
10.380	-4.960	-4.035	227.300
10.385	-4.950	1.311	179.800
10.390	-4.900	9.126	154.700
10.395	-4.810	16.830	173.300
10.400	-4.700	20.369	168.900
10.405	-4.570	20.463	143.500
10.410	-4.450	NaN	91.500
10.415	-4.330	NaN	51.600
10.420	-4.200	20.471	43.600
10.425	-4.080	NaN	44.900
10.430	-3.960	NaN	27.100
10.435	-3.840	NaN	7.100
10.440	-3.720	NaN	46.200
10.445	-3.600	NaN	73.700
10.450	-3.480	NaN	47.600
10.455	-3.370	NaN	14.100
10.460	-3.250	20.479	-7.300
10.465	-3.130	20.400	-3.300
10.470	-3.020	18.992	16.600
10.475	-2.920	15.246	36.000
10.480	-2.840	10.212	42.800
10.485	-2.790	5.471	11.500
10.490	-2.760	1.374	-1.800
10.495	-2.750	-2.524	22.500
10.500	-2.760	-5.557	27.800
10.505	-2.780	-7.170	35.500
10.510	-2.800	-8.528	14.900
10.515	-2.840	-10.195	-17.600
10.520	-2.880	-11.651	15.600
10.525	-2.930	-13.329	16.800
10.530	-2.990	-15.478	-0.800
10.535	-3.060	-17.146	11.200
10.540	-3.130	-18.076	-31.400
10.545	-3.210	-18.843	-58.600
10.550	-3.290	-19.209	-36.500
10.555	-3.370	-19.071	-40.800
10.560	-3.450	-19.484	-56.100
10.565	-3.530	-20.286	-42.700
10.570	-3.620	-20.436	-39.400
10.575	-3.700	-20.349	-35.800
10.580	-3.790	-20.463	-21.600
10.585	-3.870	-20.456	-27.100
10.590	-3.960	-20.146	-23.100
10.595	-4.040	-19.766	-28.000
10.600	-4.120	-19.249	-34.200
10.605	-4.190	-18.397	-21.300
10.610	-4.260	-17.942	-17.300
10.615	-4.330	-17.856	-7.700
10.620	-4.400	-17.259	-15.100
10.625	-4.470	-16.473	-31.700
10.630	-4.530	-15.791	38.100
10.635	-4.580	-14.430	127.800
10.640	-4.630	-12.664	229.300
10.645	-4.670	-11.509	395.900
10.650	-4.700	-10.461	496.200
10.655	-4.730	-8.952	463.400
10.660	-4.750	-7.782	281.000
10.665	-4.760	-7.059	43.600
10.670	-4.770	-6.016	-86.700
10.675	-4.780	-5.064	-100.100
10.680	-4.780	-4.689	-58.300
10.685	-4.780	-4.224	-39.500
10.690	-4.780	-3.569	-26.300
10.695	-4.770	-3.273	-26.200
10.700	-4.770	-2.973	-23.000
10.705	-4.760	-2.349	23.500
10.710	-4.750	-2.218	41.300
10.715	-4.740	-2.543	56.900
10.720	-4.730	-2.456	60.900
10.725	-4.720	-2.598	45.800
10.730	-4.710	-3.472	41.600
10.735	-4.710	-4.136	42.600
10.740	-4.710	-4.491	71.400
10.745	-4.710	-5.153	80.300
10.750	-4.720	-5.781	99.700
10.755	-4.730	-5.992	139.200
10.760	-4.740	-6.228	138.600
10.765	-4.750	-6.420	141.000
10.770	-4.760	-6.123	141.400
10.775	-4.760	-6.043	151.700
10.780	-4.780	-6.640	192.900
10.785	-4.790	-7.021	213.600
10.790	-4.800	-7.092	217.100
10.795	-4.820	-7.569	231.200
10.800	-4.830	-7.777	245.800
10.805	-4.850	-6.428	240.800
10.810	-4.850	-3.203	244.200
10.815	-4.830	1.839	240.500
10.820	-4.780	8.943	231.300
10.825	-4.700	16.584	193.300
10.830	-4.580	20.329	141.100
10.835	-4.460	20.470	143.000
10.840	-4.330	NaN	107.100
10.845	-4.210	NaN	64.800
10.850	-4.090	20.471	70.800
10.855	-3.970	NaN	73.600
10.860	-3.850	20.479	56.900
10.865	-3.730	NaN	51.800
10.870	-3.610	NaN	31.300
10.875	-3.490	NaN	-7.600
10.880	-3.370	NaN	31.600
10.885	-3.260	NaN	57.700
10.890	-3.140	20.471	25.500
10.895	-3.020	20.434	29.000
10.900	-2.910	19.057	42.200
10.905	-2.810	15.563	61.600
10.910	-2.730	11.104	61.700
10.915	-2.670	6.374	62.000
10.920	-2.640	2.068	74.100
10.925	-2.630	-1.237	48.400
10.930	-2.630	-3.669	52.500
10.935	-2.640	-5.361	58.200
10.940	-2.660	-6.933	47.900
10.945	-2.690	-9.174	38.100
10.950	-2.730	-11.433	23.100
10.955	-2.770	-12.881	43.100
10.960	-2.830	-14.266	57.300
10.965	-2.890	-15.892	36.700
10.970	-2.960	-16.996	-1.900
10.975	-3.030	-17.743	-9.900
10.980	-3.110	-18.536	15.100
10.985	-3.190	-18.826	1.600
10.990	-3.270	-18.871	-4.700
10.995	-3.350	-19.566	18.900
11.000	-3.430	-20.239	38.800
11.005	-3.520	-20.219	26.300
11.010	-3.600	-20.251	3.600
11.015	-3.690	-20.463	12.700
11.020	-3.770	-20.478	10.300
11.025	-3.860	-20.451	23.300
11.030	-3.940	-20.206	46.400
11.035	-4.020	-19.099	39.500
11.040	-4.100	-17.641	22.000
11.045	-4.160	-17.085	36.700
11.050	-4.230	-16.931	57.000
11.055	-4.290	-16.320	73.400
11.060	-4.350	-15.744	150.200
11.065	-4.410	-15.019	280.400
11.070	-4.460	-13.493	430.500
11.075	-4.500	-12.159	499.000
11.080	-4.540	-11.649	470.600
11.085	-4.580	-10.648	382.900
11.090	-4.610	-8.836	200.200
11.095	-4.630	-7.276	26.700
11.100	-4.640	-5.859	-24.200
11.105	-4.640	-4.284	5.900
11.110	-4.640	-3.391	51.400
11.115	-4.630	-3.172	63.300
11.120	-4.630	-2.634	65.800
11.125	-4.620	-2.061	69.800
11.130	-4.610	-2.121	108.400
11.135	-4.600	-2.265	126.300
11.140	-4.590	-2.404	115.200
11.145	-4.580	-3.188	128.200
11.150	-4.580	-4.067	105.300
11.155	-4.580	-4.183	116.300
11.160	-4.580	-4.232	134.000
11.165	-4.580	-4.726	138.000
11.170	-4.580	-4.921	165.400
11.175	-4.590	-5.012	154.100
11.180	-4.590	-5.377	135.800
11.185	-4.600	-5.320	182.600
11.190	-4.600	-5.086	240.800
11.195	-4.610	-5.454	260.900
11.200	-4.610	-5.714	275.700
11.205	-4.620	-5.409	279.800
11.210	-4.630	-5.769	311.300
11.215	-4.640	-6.920	337.600
11.220	-4.650	-7.463	317.400
11.225	-4.670	-7.418	337.700
11.230	-4.680	-6.821	371.500
11.235	-4.690	-3.739	360.400
11.240	-4.670	2.023	331.300
11.245	-4.620	8.831	304.100
11.250	-4.540	15.991	290.300
11.255	-4.430	20.168	276.700
11.260	-4.300	NaN	257.300
11.265	-4.180	20.459	245.200
11.270	-4.060	NaN	245.400
11.275	-3.940	20.463	257.400
11.280	-3.820	NaN	240.400
11.285	-3.700	20.477	206.200
11.290	-3.580	NaN	190.800
11.295	-3.460	NaN	171.400
11.300	-3.350	NaN	184.800
11.305	-3.230	20.473	213.800
11.310	-3.110	NaN	210.100
11.315	-3.000	20.469	204.400
11.320	-2.880	NaN	210.100
11.325	-2.760	20.046	225.600
11.330	-2.660	17.153	206.100
11.335	-2.570	12.800	182.900
11.340	-2.510	8.855	200.400
11.345	-2.460	4.692	213.400
11.350	-2.440	0.733	219.000
11.355	-2.430	-2.313	221.200
11.360	-2.440	-5.015	217.300
11.365	-2.460	-7.422	193.600
11.370	-2.490	-9.209	186.800
11.375	-2.530	-11.164	213.900
11.380	-2.580	-13.474	224.400
11.385	-2.640	-14.848	230.600
11.390	-2.700	-15.233	212.200
11.395	-2.760	-15.794	155.300
11.400	-2.830	-16.494	121.300
11.405	-2.900	-16.977	151.800
11.410	-2.980	-17.848	171.800
11.415	-3.050	-18.899	137.200
11.420	-3.140	-19.250	105.700
11.425	-3.220	-19.516	123.100
11.430	-3.300	-20.214	136.800
11.435	-3.390	-20.420	136.400
11.440	-3.470	-20.068	119.100
11.445	-3.560	-20.143	118.200
11.450	-3.640	-20.369	147.600
11.455	-3.730	-19.973	160.600
11.460	-3.810	-19.472	164.600
11.465	-3.890	-19.049	146.100
11.470	-3.960	-18.176	137.300
11.475	-4.030	-17.398	138.000
11.480	-4.100	-16.987	177.300
11.485	-4.160	-15.850	229.900
11.490	-4.220	-13.964	329.800
11.495	-4.270	-12.440	491.200
11.500	-4.310	-11.156	552.900
11.505	-4.340	-9.743	575.800
11.510	-4.360	-8.923	549.100
11.515	-4.390	-8.493	321.600
11.520	-4.410	-7.468	124.700
11.525	-4.420	-6.362	84.100
11.530	-4.430	-5.716	64.500
11.535	-4.440	-4.860	96.900
11.540	-4.440	-3.948	129.500
11.545	-4.440	-3.724	110.800
11.550	-4.440	-3.561	92.400
11.555	-4.430	-2.851	112.800
11.560	-4.420	-2.642	151.100
11.565	-4.420	-3.313	155.000
11.570	-4.420	-3.773	144.600
11.575	-4.420	-4.103	129.200
11.580	-4.420	-4.834	128.000
11.585	-4.420	-5.179	135.000
11.590	-4.430	-5.096	134.300
11.595	-4.440	-5.439	127.300
11.600	-4.440	-5.797	154.500
11.605	-4.450	-5.720	184.200
11.610	-4.460	-5.997	168.600
11.615	-4.470	-6.554	185.300
11.620	-4.480	-6.417	210.600
11.625	-4.490	-6.049	221.100
11.630	-4.500	-6.256	237.300
11.635	-4.520	-6.697	235.100
11.640	-4.530	-7.338	279.100
11.645	-4.550	-8.275	341.400
11.650	-4.570	-8.383	347.000
11.655	-4.590	-6.773	338.200
11.660	-4.590	-3.657	334.900
11.665	-4.580	1.186	314.400
11.670	-4.540	8.401	291.500
11.675	-4.450	16.333	288.500
11.680	-4.340	20.299	260.300
11.685	-4.220	20.476	230.400
11.690	-4.090	20.476	217.900
11.695	-3.970	NaN	212.100
11.700	-3.850	20.469	191.400
11.705	-3.730	NaN	174.100
11.710	-3.610	20.477	182.300
11.715	-3.500	NaN	171.600
11.720	-3.380	NaN	138.600
11.725	-3.260	NaN	158.300
11.730	-3.140	20.476	179.100
11.735	-3.030	NaN	142.500
11.740	-2.910	20.471	142.700
11.745	-2.790	NaN	139.200
11.750	-2.680	20.089	128.400
11.755	-2.570	17.550	144.400
11.760	-2.480	12.813	151.600
11.765	-2.420	7.879	154.300
11.770	-2.380	4.239	139.900
11.775	-2.360	1.501	134.500
11.780	-2.350	-1.354	138.000
11.785	-2.350	-4.138	129.300
11.790	-2.370	-6.754	130.700
11.795	-2.400	-9.456	117.800
11.800	-2.440	-11.484	105.300
11.805	-2.490	-12.500	104.700
11.810	-2.540	-13.770	108.100
11.815	-2.600	-15.575	112.400
11.820	-2.670	-16.765	99.900
11.825	-2.740	-17.562	73.300
11.830	-2.820	-18.652	37.500
11.835	-2.900	-19.296	20.600
11.840	-2.990	-19.308	8.700
11.845	-3.070	-19.721	11.800
11.850	-3.160	-20.348	29.300
11.855	-3.240	NaN	21.900
11.860	-3.330	-20.466	47.400
11.865	-3.420	NaN	50.300
11.870	-3.500	-20.239	9.100
11.875	-3.590	-19.648	-3.300
11.880	-3.670	-19.249	11.600
11.885	-3.750	-18.593	27.000
11.890	-3.820	-17.606	26.200
11.895	-3.890	-17.032	34.200
11.900	-3.950	-16.369	36.700
11.905	-4.010	-15.284	19.900
11.910	-4.070	-14.830	7.000
11.915	-4.130	-14.995	51.800
11.920	-4.180	-14.444	161.600
11.925	-4.230	-13.265	323.500
11.930	-4.280	-12.129	480.100
11.935	-4.310	-10.618	525.100
11.940	-4.340	-8.955	473.000
11.945	-4.360	-7.959	308.800
11.950	-4.380	-7.109	71.100
11.955	-4.390	-6.029	-64.200
11.960	-4.400	-5.537	-54.000
11.965	-4.410	-5.401	-11.900
11.970	-4.420	-4.591	-0.100
11.975	-4.420	-3.581	7.900
11.980	-4.410	-3.139	11.800
11.985	-4.410	-2.699	10.300
11.990	-4.400	-2.170	8.100
11.995	-4.390	-2.374	1.700
12.000	-4.380	-2.848	5.600
12.005	-4.380	-2.956	22.200
12.010	-4.370	-3.506	43.900
12.015	-4.370	-4.517	44.700
12.020	-4.380	-5.274	22.300
12.025	-4.390	-6.119	18.000
12.030	-4.400	-7.071	28.300
12.035	-4.410	-7.023	50.200
12.040	-4.430	-6.221	81.000
12.045	-4.440	-6.216	93.400
12.050	-4.450	-6.534	95.300
12.055	-4.460	-6.275	92.500
12.060	-4.470	-6.627	91.100
12.065	-4.490	-7.828	106.100
12.070	-4.510	-8.535	162.300
12.075	-4.530	-8.608	187.400
12.080	-4.550	-8.389	181.200
12.085	-4.570	-6.994	185.400
12.090	-4.580	-3.491	175.400
12.095	-4.560	1.784	189.800
12.100	-4.510	9.024	188.800
12.105	-4.430	16.864	149.500
12.110	-4.310	20.426	119.500
12.115	-4.190	20.442	88.300
12.120	-4.070	NaN	78.300
12.125	-3.950	NaN	72.200
12.130	-3.830	20.474	30.700
12.135	-3.710	NaN	36.300
12.140	-3.590	20.478	56.100
12.145	-3.470	NaN	31.000
12.150	-3.350	NaN	16.300
12.155	-3.230	NaN	50.700
12.160	-3.120	20.476	81.700
12.165	-3.000	NaN	43.500
12.170	-2.890	20.463	-0.600
12.175	-2.770	NaN	23.400
12.180	-2.660	19.454	27.300
12.185	-2.560	16.404	-27.100
12.190	-2.470	12.515	-36.200
12.195	-2.410	8.402	-24.600
12.200	-2.360	4.560	14.500
12.205	-2.340	1.273	22.400
12.210	-2.330	-2.244	-7.100
12.215	-2.340	-5.690	9.100
12.220	-2.370	-8.178	0.800
12.225	-2.400	-10.324	-17.400
12.230	-2.450	-12.794	-17.300
12.235	-2.500	-14.778	-7.300
12.240	-2.570	-16.137	-10.300
12.245	-2.640	-17.601	-7.800
12.250	-2.720	-18.656	-1.000
12.255	-2.800	-18.939	-38.200
12.260	-2.890	-19.494	-68.200
12.265	-2.970	-20.281	-99.500
12.270	-3.060	NaN	-111.000
12.275	-3.150	-20.476	-90.100
12.280	-3.240	NaN	-94.200
12.285	-3.320	NaN	-121.800
12.290	-3.410	-20.479	-121.300
12.295	-3.500	NaN	-76.500
12.300	-3.580	-20.333	-72.500
12.305	-3.670	-19.761	-85.300
12.310	-3.750	-19.604	-94.300
12.315	-3.830	-19.834	-112.900
12.320	-3.910	-19.109	-102.300
12.325	-3.980	-17.819	-79.800
12.330	-4.050	-16.841	-84.600
12.335	-4.120	-15.613	-108.400
12.340	-4.170	-14.230	-102.600
12.345	-4.220	-13.616	-96.300
12.350	-4.270	-13.238	-39.800
12.355	-4.310	-12.364	89.600
12.360	-4.350	-11.750	234.100
12.365	-4.390	-11.318	391.600
12.370	-4.420	-10.157	464.500
12.375	-4.450	-9.013	399.700
12.380	-4.480	-8.486	183.500
12.385	-4.500	-7.402	-73.000
12.390	-4.510	-5.818	-191.400
12.395	-4.510	-4.980	-193.200
12.400	-4.510	-3.349	-173.300
12.405	-4.500	-1.097	-138.800
12.410	-4.490	-1.906	-97.300
12.415	-4.490	-4.648	-94.700
12.420	-4.490	-5.429	-129.800
12.425	-4.500	-4.327	-146.300
12.430	-4.490	-3.146	-122.500
12.435	-4.490	-2.475	-119.400
12.440	-4.480	-2.864	-121.300
12.445	-4.480	-4.473	-94.500
12.450	-4.480	-5.969	-87.000
12.455	-4.490	-6.695	-88.800
12.460	-4.510	-7.311	-96.200
12.465	-4.530	-7.632	-88.800
12.470	-4.540	-7.112	-70.900
12.475	-4.550	-6.909	-91.100
12.480	-4.570	-7.960	-85.300
12.485	-4.590	-8.817	-45.800
12.490	-4.620	-8.723	-15.200
12.495	-4.640	-8.713	-14.700
12.500	-4.660	-8.624	10.200
12.505	-4.680	-8.033	38.500
12.510	-4.700	-7.902	32.300
12.515	-4.720	-7.998	56.800
12.520	-4.730	-7.043	92.100
12.525	-4.740	-4.925	93.100
12.530	-4.740	-1.090	71.800
12.535	-4.700	5.761	73.600
12.540	-4.630	14.589	78.700
12.545	-4.520	19.966	40.900
12.550	-4.400	NaN	-0.100
12.555	-4.280	20.447	-19.900
12.560	-4.160	NaN	-52.800
12.565	-4.030	20.459	-76.600
12.570	-3.910	NaN	-73.800
12.575	-3.790	20.477	-68.900
12.580	-3.670	NaN	-80.200
12.585	-3.550	NaN	-125.400
12.590	-3.440	NaN	-119.400
12.595	-3.320	NaN	-100.900
12.600	-3.200	NaN	-102.300
12.605	-3.080	20.468	-111.500
12.610	-2.970	20.459	-142.700
12.615	-2.850	19.215	-119.100
12.620	-2.750	15.819	-88.700
12.625	-2.670	11.379	-108.100
12.630	-2.620	6.737	-127.600
12.635	-2.580	2.652	-124.700
12.640	-2.560	-0.831	-144.200
12.645	-2.570	-4.419	-163.900
12.650	-2.590	-7.598	-162.000
12.655	-2.620	-9.904	-164.000
12.660	-2.660	-12.069	-168.100
12.665	-2.710	-14.144	-206.100
12.670	-2.780	-15.504	-209.300
12.675	-2.840	-16.632	-179.300
12.680	-2.920	-17.921	-197.500
12.685	-2.990	-18.561	-197.300
12.690	-3.070	-18.738	-180.600
12.695	-3.150	-19.551	-187.200
12.700	-3.240	-20.370	-222.100
12.705	-3.330	NaN	-247.800
12.710	-3.410	-20.476	-252.200
12.715	-3.500	NaN	-240.200
12.720	-3.590	-20.476	-210.600
12.725	-3.670	NaN	-228.700
12.730	-3.760	-20.478	-257.300
12.735	-3.840	-20.477	-263.100
12.740	-3.930	-20.474	-259.300
12.745	-4.010	NaN	-259.400
12.750	-4.100	-20.434	-255.500
12.755	-4.180	-19.754	-262.900
12.760	-4.250	-18.597	-269.500
12.765	-4.330	-17.528	-236.700
12.770	-4.390	-16.141	-261.500
12.775	-4.450	-14.893	-296.300
12.780	-4.500	-14.331	-274.400
12.785	-4.550	-13.629	-271.000
12.790	-4.590	-12.603	-182.300
12.795	-4.630	-11.878	16.900
12.800	-4.670	-11.009	217.900
12.805	-4.700	-9.581	338.600
12.810	-4.720	-8.488	335.400
12.815	-4.740	-7.860	214.400
12.820	-4.760	-6.983	-32.100
12.825	-4.770	-6.381	-289.400
12.830	-4.780	-6.418	-408.200
12.835	-4.790	-6.108	-383.800
12.840	-4.790	-5.329	-331.600
12.845	-4.800	-4.777	-321.600
12.850	-4.800	-3.973	-320.500
12.855	-4.790	-2.624	-307.400
12.860	-4.780	-2.060	-291.700
12.865	-4.770	-2.841	-297.200
12.870	-4.770	-3.889	-320.800
12.875	-4.770	-4.876	-302.700
12.880	-4.770	-5.791	-264.500
12.885	-4.780	-5.799	-263.800
12.890	-4.790	-5.321	-278.500
12.895	-4.790	-5.454	-248.800
12.900	-4.800	-5.601	-214.300
12.905	-4.800	-5.318	-234.100
12.910	-4.810	-5.686	-232.600
12.915	-4.820	-6.916	-199.300
12.920	-4.830	-8.073	-186.500
12.925	-4.850	-9.100	-178.800
12.930	-4.880	-9.994	-151.700
12.935	-4.910	-9.806	-87.200
12.940	-4.930	-9.026	-43.600
12.945	-4.950	-9.064	-60.100
12.950	-4.980	-9.406	-61.500
12.955	-5.000	-9.106	-36.600
12.960	-5.020	-8.111	-28.000
12.965	-5.030	-5.166	-23.400
12.970	-5.020	0.776	-14.700
12.975	-4.970	8.688	-27.100
12.980	-4.890	16.512	-62.900
12.985	-4.770	20.330	-87.900
12.990	-4.650	20.469	-97.600
12.995	-4.520	20.478	-126.000
13.000	-4.400	NaN	-124.600
13.005	-4.280	20.468	-140.200
13.010	-4.160	NaN	-211.000
13.015	-4.040	NaN	-202.300
13.020	-3.910	NaN	-157.100
13.025	-3.790	NaN	-176.600
13.030	-3.680	NaN	-204.500
13.035	-3.560	NaN	-195.400
13.040	-3.440	NaN	-198.000
13.045	-3.320	20.473	-181.700
13.050	-3.200	20.406	-163.100
13.055	-3.090	18.638	-198.600
13.060	-2.990	14.116	-198.900
13.065	-2.920	9.018	-205.700
13.070	-2.870	4.933	-217.200
13.075	-2.850	1.158	-169.100
13.080	-2.840	-2.597	-169.600
13.085	-2.840	-5.489	-191.600
13.090	-2.870	-7.807	-186.200
13.095	-2.900	-10.411	-192.200
13.100	-2.940	-12.573	-184.500
13.105	-2.990	-13.721	-190.700
13.110	-3.050	-14.802	-217.300
13.115	-3.110	-16.050	-204.700
13.120	-3.180	-16.912	-209.700
13.125	-3.250	-17.989	-216.700
13.130	-3.330	-19.506	-204.700
13.135	-3.420	-20.383	-231.900
13.140	-3.500	NaN	-237.100
13.145	-3.590	-20.479	-272.600
13.150	-3.680	NaN	-299.900
13.155	-3.760	-20.479	-265.000
13.160	-3.850	NaN	-258.800
13.165	-3.930	-20.477	-250.200
13.170	-4.020	NaN	-238.400
13.175	-4.100	NaN	-255.700
13.180	-4.180	NaN	-263.500
13.185	-4.270	-20.464	-262.000
13.190	-4.350	-20.205	-260.300
13.195	-4.430	-19.857	-233.200
13.200	-4.510	-19.224	-228.800
13.205	-4.580	-18.021	-243.100
13.210	-4.650	-17.147	-248.600
13.215	-4.710	-16.574	-244.900
13.220	-4.770	-15.398	-215.000
13.225	-4.820	-14.133	-225.500
13.230	-4.860	-13.194	-144.300
13.235	-4.900	-11.824	61.300
13.240	-4.940	-10.322	193.700
13.245	-4.960	-9.521	295.900
13.250	-4.990	-8.633	289.300
13.255	-5.000	-7.059	115.600
13.260	-5.010	-5.758	-132.300
13.265	-5.020	-4.918	-319.500
13.270	-5.010	-3.824	-314.300
13.275	-5.010	-2.947	-260.000
13.280	-5.000	-2.736	-240.500
13.285	-4.990	-2.343	-231.800
13.290	-4.980	-1.705	-249.300
13.295	-4.960	-1.648	-257.200
13.300	-4.950	-1.850	-227.400
13.305	-4.940	-1.995	-208.800
13.310	-4.920	-2.902	-197.800
13.315	-4.920	-4.241	-182.900
13.320	-4.920	-4.777	-230.900
13.325	-4.920	-4.964	-234.300
13.330	-4.930	-5.558	-186.100
13.335	-4.930	-5.816	-166.700
13.340	-4.940	-5.663	-143.900
13.345	-4.940	-6.119	-134.000
13.350	-4.950	-6.809	-132.900
13.355	-4.970	-7.138	-123.700
13.360	-4.980	-7.721	-99.500
13.365	-5.000	-8.059	-57.900
13.370	-5.010	-7.259	-29.600
13.375	-5.020	-6.561	-27.000
13.380	-5.040	-7.076	-13.000
13.385	-5.050	-7.834	16.300
13.390	-5.070	-8.151	78.500
13.395	-5.090	-8.491	102.600
13.400	-5.100	-8.276	49.800
13.405	-5.120	-6.049	19.700
13.410	-5.110	-1.655	28.300
13.415	-5.080	4.641	42.800
13.420	-5.020	13.071	25.400
13.425	-4.910	19.404	-26.500
13.430	-4.790	NaN	-27.100
13.435	-4.660	20.424	-19.400
13.440	-4.540	NaN	-54.600
13.445	-4.420	20.454	-86.200
13.450	-4.290	NaN	-106.300
13.455	-4.170	20.478	-130.200
13.460	-4.050	NaN	-135.800
13.465	-3.930	NaN	-108.000
13.470	-3.810	NaN	-90.700
13.475	-3.690	20.473	-95.100
13.480	-3.570	NaN	-96.700
13.485	-3.450	20.460	-96.500
13.490	-3.340	NaN	-110.100
13.495	-3.220	19.705	-97.200
13.500	-3.110	16.684	-96.600
13.505	-3.020	12.644	-124.600
13.510	-2.960	8.486	-105.300
13.515	-2.910	4.440	-80.300
13.520	-2.890	1.375	-84.800
13.525	-2.870	-1.138	-74.300
13.530	-2.870	-3.854	-80.000
13.535	-2.880	-6.556	-93.700
13.540	-2.910	-9.169	-99.800
13.545	-2.950	-11.838	-105.500
13.550	-3.000	-13.730	-49.900
13.555	-3.060	-14.473	-32.600
13.560	-3.120	-15.288	-63.400
13.565	-3.180	-16.506	-7.800
13.570	-3.250	-17.262	28.100
13.575	-3.330	-17.981	-6.200
13.580	-3.400	-19.143	-27.400
13.585	-3.480	-19.959	-32.500
13.590	-3.570	-20.314	-30.200
13.595	-3.660	NaN	-16.500
13.600	-3.740	-20.477	-12.000
13.605	-3.830	NaN	-11.800
13.610	-3.910	NaN	-9.800
13.615	-4.000	-20.476	-29.900
13.620	-4.080	NaN	-41.100
13.625	-4.160	-20.473	-15.400
13.630	-4.250	NaN	8.900
13.635	-4.330	-20.146	-19.700
13.640	-4.410	-19.387	-43.700
13.645	-4.480	-18.935	-17.400
13.650	-4.550	-18.304	10.300
13.655	-4.620	-17.073	-12.900
13.660	-4.680	-16.079	0.900
13.665	-4.740	-15.421	133.100
13.670	-4.790	-14.288	290.900
13.675	-4.840	-12.929	395.700
13.680	-4.880	-12.108	432.000
13.685	-4.920	-11.023	364.600
13.690	-4.940	-9.431	149.800
13.695	-4.960	-8.284	-81.800
13.700	-4.980	-7.165	-160.600
13.705	-4.990	-5.591	-149.600
13.710	-4.990	-4.503	-118.400
13.715	-4.990	-4.019	-76.500
13.720	-4.990	-3.300	-67.600
13.725	-4.980	-2.859	-73.400
13.730	-4.970	-3.288	-87.900
13.735	-4.970	-3.518	-83.000
13.740	-4.960	-3.096	-75.400
13.745	-4.950	-3.013	-97.000
13.750	-4.940	-3.289	-96.800
13.755	-4.940	-3.291	-80.100
13.760	-4.930	-3.556	-49.200
13.765	-4.930	-4.139	-35.100
13.770	-4.930	-4.122	-63.200
13.775	-4.930	-4.149	-77.700
13.780	-4.930	-5.024	-75.300
13.785	-4.930	-5.715	-59.700
13.790	-4.940	-5.883	-24.100
13.795	-4.940	-6.201	8.400
13.800	-4.950	-6.126	13.000
13.805	-4.960	-5.439	23.600
13.810	-4.960	-5.463	46.000
13.815	-4.970	-6.402	56.600
13.820	-4.980	-7.131	68.000
13.825	-5.000	-7.551	122.900
13.830	-5.010	-7.723	155.800
13.835	-5.020	-6.356	99.600
13.840	-5.020	-2.596	64.700
13.845	-5.000	2.821	79.700
13.850	-4.950	10.218	102.400
13.855	-4.850	17.747	106.900
13.860	-4.730	NaN	47.700
13.865	-4.610	20.414	-24.000
13.870	-4.490	NaN	-43.800
13.875	-4.360	20.468	-45.000
13.880	-4.240	NaN	-16.300
13.885	-4.120	NaN	-8.000
13.890	-4.000	NaN	-43.400
13.895	-3.880	NaN	-72.400
13.900	-3.760	NaN	-62.600
13.905	-3.640	NaN	1.500
13.910	-3.520	20.477	32.400
13.915	-3.400	NaN	-10.300
13.920	-3.280	20.464	-10.600
13.925	-3.170	NaN	7.300
13.930	-3.050	19.459	9.700
13.935	-2.950	16.586	19.000
13.940	-2.860	12.914	-18.000
13.945	-2.790	8.810	-39.300
13.950	-2.750	4.973	-19.600
13.955	-2.720	1.974	6.500
13.960	-2.700	-1.088	20.700
13.965	-2.700	-4.161	-30.200
13.970	-2.720	-6.543	-64.100
13.975	-2.740	-8.717	-31.200
13.980	-2.780	-11.089	-15.100
13.985	-2.830	-13.006	-29.000
13.990	-2.880	-14.473	-20.400
13.995	-2.950	-16.035	-23.000
14.000	-3.020	-17.049	-44.100
14.005	-3.090	-17.152	-47.200
14.010	-3.160	-17.525	-53.100
14.015	-3.240	-18.456	-59.400
14.020	-3.310	-19.045	-53.900
14.025	-3.400	-19.531	-30.300
14.030	-3.480	-20.201	-15.300
14.035	-3.560	-20.396	-36.800
14.040	-3.650	-20.320	-67.500
14.045	-3.730	-20.436	-72.500
14.050	-3.820	-20.465	-49.100
14.055	-3.900	-20.144	-47.300
14.060	-3.990	-19.945	-26.300
14.065	-4.070	-19.788	-13.700
14.070	-4.150	-18.868	-39.900
14.075	-4.220	-18.111	-7.100
14.080	-4.290	-18.219	2.600
14.085	-4.360	-17.976	12.500
14.090	-4.430	-17.041	82.900
14.095	-4.490	-16.167	155.500
14.100	-4.550	-14.870	266.200
14.105	-4.600	-12.733	357.300
14.110	-4.630	-11.054	365.900
14.115	-4.670	-10.081	325.700
14.120	-4.690	-8.723	162.300
14.125	-4.710	-7.234	-62.600
14.130	-4.720	-6.156	-147.800
14.135	-4.730	-5.091	-132.500
14.140	-4.730	-4.303	-99.000
14.145	-4.730	-4.306	-78.400
14.150	-4.730	-4.017	-62.900
14.155	-4.720	-2.706	-26.000
14.160	-4.710	-1.799	-18.700
14.165	-4.700	-1.853	-10.400
14.170	-4.690	-1.789	1.200
14.175	-4.670	-1.808	-32.400
14.180	-4.670	-2.631	-42.100
14.185	-4.660	-3.500	-20.600
14.190	-4.660	-3.893	-14.400
14.195	-4.660	-4.287	-19.900
14.200	-4.660	-4.383	-7.400
14.205	-4.660	-4.020	4.800
14.210	-4.660	-4.204	6.900
14.215	-4.660	-4.844	33.400
14.220	-4.660	-4.853	66.600
14.225	-4.660	-4.499	67.800
14.230	-4.660	-4.382	63.200
14.235	-4.660	-4.230	98.900
14.240	-4.660	-4.521	127.500
14.245	-4.670	-5.744	140.400
14.250	-4.680	-6.652	159.700
14.255	-4.690	-6.700	173.400
14.260	-4.700	-6.946	162.000
14.265	-4.710	-6.376	148.300
14.270	-4.720	-2.557	153.200
14.275	-4.690	4.123	160.000
14.280	-4.630	12.523	152.900
14.285	-4.530	19.108	104.100
14.290	-4.400	NaN	81.000
14.295	-4.280	20.413	64.300
14.300	-4.160	NaN	39.400
14.305	-4.040	20.453	57.900
14.310	-3.920	NaN	52.000
14.315	-3.800	20.479	25.900
14.320	-3.680	NaN	8.900
14.325	-3.560	NaN	-1.600
14.330	-3.440	NaN	10.200
14.335	-3.320	NaN	45.000
14.340	-3.210	20.479	40.900
14.345	-3.090	NaN	4.300
14.350	-2.970	NaN	-10.300
14.355	-2.860	20.475	4.600
14.360	-2.740	20.401	14.300
14.365	-2.630	18.837	-4.100
14.370	-2.530	15.256	-40.200
14.375	-2.460	10.806	-24.700
14.380	-2.400	6.076	28.600
14.385	-2.370	2.063	51.200
14.390	-2.360	-1.109	71.900
14.395	-2.360	-4.300	47.400
14.400	-2.380	-7.036	-4.400
14.405	-2.410	-9.106	-1.700
14.410	-2.450	-11.481	17.000
14.415	-2.500	-13.757	46.600
14.420	-2.560	-14.787	100.900
14.425	-2.630	-15.305	89.500
14.430	-2.690	-16.255	18.200
14.435	-2.760	-17.047	-22.200
14.440	-2.840	-17.622	-32.400
14.445	-2.920	-18.602	-31.300
14.450	-3.000	-19.429	-7.400
14.455	-3.080	-19.838	-29.200
14.460	-3.170	-20.282	-59.500
14.465	-3.250	NaN	-9.000
14.470	-3.340	-20.452	22.300
14.475	-3.430	-20.410	-7.400
14.480	-3.520	-20.448	-28.900
14.485	-3.600	NaN	-19.300
14.490	-3.690	-20.475	-16.700
14.495	-3.770	-20.455	-34.300
14.500	-3.860	-19.874	-28.000
14.505	-3.930	-18.621	-28.300
14.510	-4.010	-17.814	-44.200
14.515	-4.080	-17.268	-15.000
14.520	-4.140	-15.864	20.800
14.525	-4.200	-14.246	72.900
14.530	-4.250	-13.175	210.500
14.535	-4.290	-11.997	340.200
14.540	-4.330	-10.692	339.800
14.545	-4.360	-9.896	256.600
14.550	-4.380	-8.944	110.000
14.555	-4.410	-7.434	-93.500
14.560	-4.420	-6.265	-189.200
14.565	-4.430	-5.079	-165.800
14.570	-4.430	-3.500	-143.900
14.575	-4.420	-2.553	-136.100
14.580	-4.420	-2.360	-117.900
14.585	-4.410	-2.362	-117.600
14.590	-4.400	-2.573	-151.200
14.595	-4.390	-3.180	-147.100
14.600	-4.390	-3.683	-147.800
14.605	-4.390	-3.675	-167.700
14.610	-4.390	-3.723	-149.800
14.615	-4.390	-3.733	-137.800
14.620	-4.380	-3.393	-122.900
14.625	-4.380	-3.724	-129.800
14.630	-4.380	-4.829	-161.300
14.635	-4.390	-5.439	-132.200
14.640	-4.400	-5.527	-97.600
14.645	-4.400	-5.938	-86.200
14.650	-4.410	-6.465	-98.400
14.655	-4.430	-6.459	-106.700
14.660	-4.440	-6.240	-85.000
14.665	-4.450	-5.947	-72.800
14.670	-4.460	-5.543	-43.100
14.675	-4.460	-6.023	-12.300
14.680	-4.480	-7.311	-7.000
14.685	-4.500	-7.891	-14.900
14.690	-4.510	-7.336	8.700
14.695	-4.520	-5.202	17.400
14.700	-4.520	-0.211	-8.900
14.705	-4.480	7.634	-5.300
14.710	-4.400	16.040	-16.900
14.715	-4.290	20.278	-27.000
14.720	-4.160	20.478	-52.000
14.725	-4.040	20.473	-72.900
14.730	-3.920	NaN	-58.400
14.735	-3.800	20.466	-95.300
14.740	-3.680	NaN	-128.200
14.745	-3.560	20.475	-131.200
14.750	-3.450	NaN	-136.700
14.755	-3.330	NaN	-110.400
14.760	-3.210	NaN	-129.200
14.765	-3.090	NaN	-171.900
14.770	-2.980	20.473	-150.800
14.775	-2.860	NaN	-141.400
14.780	-2.750	20.461	-155.500
14.785	-2.630	NaN	-145.000
14.790	-2.520	19.547	-143.900
14.795	-2.420	15.751	-147.800
14.800	-2.340	10.789	-107.800
14.805	-2.290	6.759	-83.400
14.810	-2.250	2.950	-102.500
14.815	-2.240	-0.657	-119.800
14.820	-2.240	-3.164	-112.100
14.825	-2.250	-5.728	-100.000
14.830	-2.270	-8.722	-102.900
14.835	-2.310	-10.398	-112.800
14.840	-2.360	-11.490	-130.400
14.845	-2.410	-13.467	-145.700
14.850	-2.470	-15.187	-128.300
14.855	-2.540	-15.966	-108.700
14.860	-2.610	-17.075	-137.300
14.865	-2.680	-18.466	-160.900
14.870	-2.760	-18.889	-161.600
14.875	-2.850	-19.021	-162.800
14.880	-2.930	-19.686	-168.700
14.885	-3.020	-20.081	-181.000
14.890	-3.100	-20.196	-184.300
14.895	-3.190	-20.426	-175.200
14.900	-3.280	NaN	-160.700
14.905	-3.360	NaN	-164.200
14.910	-3.450	-20.477	-170.100
14.915	-3.540	NaN	-158.500
14.920	-3.620	-20.256	-146.900
14.925	-3.710	-19.849	-125.300
14.930	-3.790	-19.716	-124.100
14.935	-3.870	-19.071	-157.800
14.940	-3.940	-17.796	-149.100
14.945	-4.010	-16.793	-124.300
14.950	-4.070	-15.660	-110.600
14.955	-4.130	-14.026	-108.100
14.960	-4.180	-12.773	-66.900
14.965	-4.220	-11.944	81.900
14.970	-4.260	-10.794	290.000
14.975	-4.290	-9.854	410.600
14.980	-4.320	-9.537	374.700
14.985	-4.340	-8.854	289.700
14.990	-4.370	-7.777	106.800
14.995	-4.380	-7.115	-126.300
15.000	-4.400	-6.296	-196.400
15.005	-4.400	-5.121	-132.100
15.010	-4.410	-4.769	-65.700
15.015	-4.410	-5.011	-43.800
15.020	-4.420	-4.606	-31.100
15.025	-4.420	-4.070	18.800
15.030	-4.420	-4.192	52.500
15.035	-4.420	-4.333	45.900
15.040	-4.420	-4.348	73.600
15.045	-4.420	-4.764	96.200
15.050	-4.430	-5.007	85.000
15.055	-4.430	-4.607	107.800
15.060	-4.430	-4.473	112.300
15.065	-4.440	-4.851	76.400
15.070	-4.440	-5.030	82.900
15.075	-4.450	-5.455	121.900
15.080	-4.460	-6.462	133.200
15.085	-4.470	-7.114	135.300
15.090	-4.490	-7.401	160.300
15.095	-4.500	-7.773	190.300
15.100	-4.520	-7.925	219.700
15.105	-4.540	-7.870	260.100
15.110	-4.560	-8.214	308.500
15.115	-4.580	-8.901	342.000
15.120	-4.610	-8.896	368.100
15.125	-4.630	-8.360	400.900
15.130	-4.650	-7.632	422.000
15.135	-4.660	-4.804	432.900
15.140	-4.650	0.755	435.200
15.145	-4.600	8.869	441.400
15.150	-4.510	17.318	452.000
15.155	-4.400	NaN	437.300
15.160	-4.270	20.401	431.300
15.165	-4.150	NaN	395.700
15.170	-4.030	20.467	344.700
15.175	-3.910	NaN	347.300
15.180	-3.790	NaN	332.700
15.185	-3.670	20.478	316.800
15.190	-3.550	NaN	316.100
15.195	-3.430	20.478	305.800
15.200	-3.320	NaN	309.300
15.205	-3.200	20.473	321.100
15.210	-3.080	NaN	317.000
15.215	-2.970	20.470	328.300
15.220	-2.850	NaN	311.000
15.225	-2.730	20.048	252.400
15.230	-2.630	17.019	239.000
15.235	-2.540	12.254	254.800
15.240	-2.480	7.857	267.200
15.245	-2.440	3.524	265.800
15.250	-2.420	-0.323	259.700
15.255	-2.420	-3.298	252.800
15.260	-2.440	-6.313	252.100
15.265	-2.460	-9.244	258.600
15.270	-2.500	-11.395	270.100
15.275	-2.550	-13.413	244.600
15.280	-2.620	-15.749	212.100
15.285	-2.690	-17.516	225.700
15.290	-2.770	-18.645	242.600
15.295	-2.850	-19.821	254.500
15.300	-2.940	-20.465	253.200
15.305	-3.020	-20.476	229.300
15.310	-3.110	NaN	205.800
15.315	-3.200	NaN	212.500
15.320	-3.290	NaN	218.100
15.325	-3.380	NaN	216.300
15.330	-3.460	NaN	202.200
15.335	-3.550	NaN	208.000
15.340	-3.640	NaN	242.900
15.345	-3.720	-20.477	243.700
15.350	-3.810	NaN	227.800
15.355	-3.890	-20.475	218.800
15.360	-3.980	NaN	231.500
15.365	-4.060	-20.267	250.600
15.370	-4.140	-19.203	281.000
15.375	-4.210	-18.002	314.800
15.380	-4.280	-17.109	333.900
15.385	-4.340	-15.595	357.800
15.390	-4.400	-13.938	350.200
15.395	-4.440	-13.236	346.800
15.400	-4.490	-12.770	405.600
15.405	-4.530	-11.864	547.800
15.410	-4.570	-11.272	751.800
15.415	-4.600	-10.851	929.400
15.420	-4.630	-9.766	1007.000
15.425	-4.660	-8.651	964.200
15.430	-4.680	-7.978	769.100
15.435	-4.690	-6.892	466.000
15.440	-4.700	-5.580	278.600
15.445	-4.710	-5.097	287.800
15.450	-4.710	-5.240	392.200
15.455	-4.720	-5.491	432.800
15.460	-4.720	-5.962	395.400
15.465	-4.730	-6.072	417.800
15.470	-4.740	-5.182	461.600
15.475	-4.740	-4.439	502.900
15.480	-4.740	-4.602	544.400
15.485	-4.740	-4.537	543.700
15.490	-4.740	-4.189	583.200
15.495	-4.740	-4.514	633.700
15.500	-4.740	-4.873	613.100
15.505	-4.750	-4.691	590.200
15.510	-4.750	-4.840	612.900
15.515	-4.750	-5.327	640.800
15.520	-4.760	-5.564	651.200
15.525	-4.760	-6.212	680.500
15.530	-4.780	-7.676	724.100
15.535	-4.800	-8.525	738.300
15.540	-4.820	-8.224	768.900
15.545	-4.840	-8.451	850.300
15.550	-4.860	-9.037	916.900
15.555	-4.880	-8.758	956.800
15.560	-4.900	-8.405	989.800
15.565	-4.920	-8.321	1002.200
15.570	-4.940	-7.611	1008.500
15.575	-4.950	-5.761	1013.600
15.580	-4.950	-1.965	979.600
15.585	-4.920	4.549	927.900
15.590	-4.850	13.154	892.500
15.595	-4.750	19.389	862.100
15.600	-4.620	NaN	832.700
15.605	-4.500	20.424	817.500
15.610	-4.380	NaN	785.100
15.615	-4.260	20.456	735.800
15.620	-4.130	NaN	720.100
15.625	-4.010	20.477	735.600
15.630	-3.890	NaN	741.300
15.635	-3.770	NaN	738.900
15.640	-3.650	NaN	780.100
15.645	-3.530	20.479	827.800
15.650	-3.420	NaN	836.600
15.655	-3.300	NaN	849.200
15.660	-3.180	NaN	832.600
15.665	-3.060	20.353	793.000
15.670	-2.950	18.614	813.900
15.675	-2.860	14.429	832.900
15.680	-2.780	9.281	829.000
15.685	-2.740	4.861	806.200
15.690	-2.710	1.274	781.300
15.695	-2.700	-2.333	774.800
15.700	-2.710	-5.624	773.100
15.705	-2.730	-8.139	802.400
15.710	-2.760	-10.708	790.900
15.715	-2.810	-13.298	747.600
15.720	-2.870	-14.966	741.500
15.725	-2.930	-16.241	734.500
15.730	-3.000	-17.841	725.700
15.735	-3.080	-19.136	714.800
15.740	-3.170	-19.976	700.800
15.745	-3.250	-20.446	664.800
15.750	-3.340	NaN	650.900
15.755	-3.430	-20.477	653.800
15.760	-3.520	NaN	612.800
15.765	-3.600	-20.477	591.800
15.770	-3.690	NaN	582.200
15.775	-3.770	NaN	561.900
15.780	-3.860	NaN	560.100
15.785	-3.940	-20.479	541.500
15.790	-4.030	NaN	528.200
15.795	-4.110	-20.479	532.200
15.800	-4.190	NaN	525.300
15.805	-4.280	NaN	540.500
15.810	-4.360	-20.474	531.800
15.815	-4.440	-20.441	487.200
15.820	-4.520	-19.633	471.200
15.825	-4.590	-18.220	499.300
15.830	-4.660	-17.214	483.100
15.835	-4.720	-16.302	448.400
15.840	-4.780	-15.588	449.700
15.845	-4.840	-15.105	507.500
15.850	-4.890	-14.059	658.300
15.855	-4.930	-12.696	832.000
15.860	-4.970	-11.840	940.000
15.865	-5.000	-10.963	920.800
15.870	-5.030	-9.181	810.800
15.875	-5.050	-7.388	591.500
15.880	-5.060	-6.228	345.500
15.885	-5.070	-4.909	258.500
15.890	-5.060	-3.748	284.700
15.895	-5.060	-3.705	322.900
15.900	-5.060	-3.973	325.500
15.905	-5.050	-3.554	344.000
15.910	-5.040	-2.969	344.100
15.915	-5.040	-2.484	299.400
15.920	-5.020	-2.108	315.600
15.925	-5.010	-2.820	326.300
15.930	-5.010	-4.436	321.800
15.935	-5.010	-5.264	327.300
15.940	-5.010	-5.253	324.500
15.945	-5.020	-5.561	316.300
15.950	-5.020	-6.043	294.100
15.955	-5.030	-6.194	302.200
15.960	-5.040	-6.517	316.300
15.965	-5.050	-7.074	318.100
15.970	-5.060	-7.272	333.500
15.975	-5.080	-7.535	327.800
15.980	-5.090	-7.981	306.500
15.985	-5.110	-7.656	322.700
15.990	-5.120	-7.069	366.900
15.995	-5.130	-7.406	381.600
16.000	-5.150	-8.047	370.300
16.005	-5.170	-8.220	392.500
16.010	-5.180	-8.394	418.600
16.015	-5.200	-8.490	413.700
16.020	-5.220	-7.526	396.000
16.025	-5.230	-4.634	370.900
16.030	-5.210	0.573	360.800
16.035	-5.170	8.589	335.700
16.040	-5.080	17.029	305.400
16.045	-4.960	NaN	310.900
16.050	-4.830	20.424	279.700
16.055	-4.710	NaN	216.100
16.060	-4.590	20.475	191.700
16.065	-4.460	20.478	190.700
16.070	-4.340	NaN	167.200
16.075	-4.220	20.476	158.600
16.080	-4.100	NaN	187.300
16.085	-3.980	NaN	186.100
16.090	-3.860	NaN	168.700
16.095	-3.740	NaN	162.300
16.100	-3.620	NaN	140.400
16.105	-3.500	NaN	128.700
16.110	-3.380	20.479	125.100
16.115	-3.260	20.398	125.400
16.120	-3.150	18.927	134.700
16.125	-3.050	15.134	112.800
16.130	-2.970	10.324	78.100
16.135	-2.920	6.061	35.300
16.140	-2.880	2.282	57.400
16.145	-2.870	-1.624	109.300
16.150	-2.870	-4.874	87.300
16.155	-2.890	-7.269	59.900
16.160	-2.920	-9.911	43.200
16.165	-2.960	-12.343	43.800
16.170	-3.010	-13.647	30.600
16.175	-3.070	-14.753	25.800
16.180	-3.130	-16.258	39.800
16.185	-3.200	-17.262	11.000
16.190	-3.280	-18.068	-11.000
16.195	-3.360	-19.504	-25.700
16.200	-3.440	-20.436	-30.300
16.205	-3.530	NaN	-62.700
16.210	-3.610	NaN	-96.700
16.215	-3.700	NaN	-89.900
16.220	-3.780	-20.477	-78.000
16.225	-3.870	NaN	-57.000
16.230	-3.950	-20.478	-98.600
16.235	-4.040	NaN	-111.700
16.240	-4.120	NaN	-86.400
16.245	-4.200	NaN	-119.100
16.250	-4.290	NaN	-110.400
16.255	-4.370	-20.476	-92.000
16.260	-4.450	-20.465	-92.500
16.265	-4.530	-19.770	-96.300
16.270	-4.610	-17.846	-116.000
16.275	-4.670	-15.808	-103.200
16.280	-4.720	-14.326	-112.300
16.285	-4.770	-12.612	-99.300
16.290	-4.800	-10.771	-2.300
16.295	-4.830	-9.581	184.800
16.300	-4.860	-8.480	365.400
16.305	-4.870	-6.853	397.300
16.310	-4.880	-5.288	341.900
16.315	-4.880	-3.909	152.300
16.320	-4.870	-2.453	-134.200
16.325	-4.860	-1.588	-240.200
16.330	-4.850	-1.419	-210.500
16.335	-4.830	-0.971	-179.300
16.340	-4.810	-0.331	-147.200
16.345	-4.790	-0.286	-139.700
16.350	-4.770	-0.261	-136.900
16.355	-4.750	0.039	-143.500
16.360	-4.730	-0.504	-153.000
16.365	-4.710	-1.737	-167.600
16.370	-4.700	-2.500	-197.100
16.375	-4.700	-3.194	-222.000
16.380	-4.690	-4.298	-191.000
16.385	-4.690	-4.959	-131.900
16.390	-4.700	-5.449	-136.900
16.395	-4.710	-6.484	-161.500
16.400	-4.720	-6.924	-129.900
16.405	-4.730	-6.219	-119.300
16.410	-4.740	-5.610	-128.900
16.415	-4.740	-5.603	-123.800
16.420	-4.750	-5.756	-142.200
16.425	-4.760	-6.384	-121.700
16.430	-4.770	-7.446	-78.900
16.435	-4.790	-8.025	-63.500
16.440	-4.810	-8.469	-44.100
16.445	-4.830	-9.346	-17.900
16.450	-4.860	-9.616	-16.500
16.455	-4.880	-8.766	-28.700
16.460	-4.900	-6.823	3.300
16.465	-4.900	-2.456	6.800
16.470	-4.870	4.899	-26.800
16.475	-4.800	13.789	-34.100
16.480	-4.700	19.647	-60.900
16.485	-4.570	NaN	-80.000
16.490	-4.450	20.430	-116.300
16.495	-4.330	NaN	-144.000
16.500	-4.200	20.456	-148.000
16.505	-4.080	NaN	-190.800
16.510	-3.960	20.476	-190.700
16.515	-3.840	NaN	-181.700
16.520	-3.720	NaN	-207.200
16.525	-3.600	NaN	-217.600
16.530	-3.480	NaN	-223.800
16.535	-3.370	NaN	-226.100
16.540	-3.250	20.477	-220.000
16.545	-3.130	NaN	-211.700
16.550	-3.020	20.462	-198.800
16.555	-2.900	20.438	-185.000
16.560	-2.790	18.582	-190.900
16.565	-2.690	13.895	-227.300
16.570	-2.620	9.015	-237.000
16.575	-2.580	4.691	-210.800
16.580	-2.550	0.314	-222.500
16.585	-2.550	-3.406	-246.800
16.590	-2.560	-6.624	-243.700
16.595	-2.590	-9.888	-248.800
16.600	-2.640	-12.331	-244.700
16.605	-2.690	-13.516	-247.200
16.610	-2.750	-14.598	-272.700
16.615	-2.810	-15.880	-291.900
16.620	-2.880	-16.846	-259.400
16.625	-2.950	-18.181	-204.300
16.630	-3.040	-19.856	-220.400
16.635	-3.120	NaN	-219.400
16.640	-3.210	-20.464	-183.900
16.645	-3.300	NaN	-159.000
16.650	-3.390	-20.477	-139.900
16.655	-3.470	NaN	-126.100
16.660	-3.560	NaN	-71.800
16.665	-3.650	NaN	-26.800
16.670	-3.730	NaN	-29.200
16.675	-3.820	NaN	-29.600
16.680	-3.900	NaN	-15.900
16.685	-3.980	NaN	-33.600
16.690	-4.070	NaN	-64.300
16.695	-4.150	-20.474	-60.600
16.700	-4.240	NaN	-73.900
16.705	-4.320	-20.183	-104.200
16.710	-4.400	-19.631	-103.200
16.715	-4.470	-18.924	-93.700
16.720	-4.540	-17.549	-81.000
16.725	-4.610	-16.119	-19.000
16.730	-4.660	-15.021	131.800
16.735	-4.710	-13.395	316.400
16.740	-4.750	-11.563	409.300
16.745	-4.790	-10.436	393.400
16.750	-4.820	-9.439	274.700
16.755	-4.840	-8.190	25.900
16.760	-4.850	-7.361	-178.400
16.765	-4.870	-6.461	-191.700
16.770	-4.870	-4.714	-177.800
16.775	-4.870	-3.274	-173.200
16.780	-4.860	-2.901	-117.400
16.785	-4.850	-2.544	-103.100
16.790	-4.840	-1.958	-105.300
16.795	-4.830	-1.765	-77.100
16.800	-4.820	-1.633	-70.600
16.805	-4.800	-1.538	-65.600
16.810	-4.790	-2.261	-63.700
16.815	-4.780	-3.238	-75.700
16.820	-4.780	-3.389	-67.800
16.825	-4.770	-3.537	-57.800
16.830	-4.770	-4.367	-45.700
16.835	-4.770	-4.766	-51.100
16.840	-4.770	-4.710	-81.200
16.845	-4.780	-5.272	-96.500
16.850	-4.780	-6.089	-81.700
16.855	-4.790	-6.736	-40.300
16.860	-4.810	-7.577	-12.400
16.865	-4.820	-8.149	-17.700
16.870	-4.840	-7.985	-12.000
16.875	-4.860	-8.034	8.300
16.880	-4.880	-8.730	15.200
16.885	-4.900	-8.979	18.500
16.890	-4.920	-8.806	18.600
16.895	-4.940	-8.475	0.600
16.900	-4.960	-5.619	-11.100
16.905	-4.950	0.763	-24.300
16.910	-4.900	9.353	-48.600
16.915	-4.810	17.435	-83.800
16.920	-4.690	NaN	-110.200
16.925	-4.570	20.415	-97.600
16.930	-4.440	NaN	-115.800
16.935	-4.320	20.472	-142.100
16.940	-4.200	NaN	-155.400
16.945	-4.080	NaN	-181.500
16.950	-3.960	20.477	-193.200
16.955	-3.840	NaN	-200.700
16.960	-3.720	NaN	-197.600
16.965	-3.600	NaN	-189.300
16.970	-3.480	NaN	-230.100
16.975	-3.360	20.471	-214.000
16.980	-3.240	NaN	-156.900
16.985	-3.130	20.457	-170.500
16.990	-3.010	NaN	-193.500
16.995	-2.900	19.719	-187.300
17.000	-2.790	16.425	-175.400
17.005	-2.710	11.883	-178.500
17.010	-2.650	7.219	-184.700
17.015	-2.610	2.632	-201.300
17.020	-2.600	-1.103	-206.300
17.025	-2.600	-3.833	-215.100
17.030	-2.610	-6.717	-221.500
17.035	-2.640	-10.063	-211.300
17.040	-2.690	-12.539	-233.900
17.045	-2.740	-14.392	-246.100
17.050	-2.810	-15.890	-216.800
17.055	-2.870	-16.972	-209.500
17.060	-2.950	-18.394	-245.600
17.065	-3.030	-19.814	-276.800
17.070	-3.120	-20.425	-282.800
17.075	-3.210	NaN	-300.800
17.080	-3.290	NaN	-293.600
17.085	-3.380	NaN	-284.600
17.090	-3.470	NaN	-317.500
17.095	-3.550	NaN	-331.800
17.100	-3.640	NaN	-321.000
17.105	-3.730	NaN	-318.400
17.110	-3.810	NaN	-324.600
17.115	-3.900	NaN	-309.800
17.120	-3.980	NaN	-302.900
17.125	-4.060	NaN	-329.400
17.130	-4.150	-20.476	-342.700
17.135	-4.230	NaN	-328.900
17.140	-4.310	-20.281	-308.900
17.145	-4.390	-19.496	-320.900
17.150	-4.470	-17.949	-356.200
17.155	-4.530	-16.101	-348.000
17.160	-4.590	-15.108	-293.200
17.165	-4.640	-14.721	-165.800
17.170	-4.690	-13.719	62.900
17.175	-4.730	-12.346	234.600
17.180	-4.770	-10.991	254.800
17.185	-4.800	-9.141	189.800
17.190	-4.820	-7.393	-9.400
17.195	-4.830	-6.708	-257.200
17.200	-4.840	-6.221	-395.000
17.205	-4.850	-5.318	-409.300
17.210	-4.850	-4.828	-361.300
17.215	-4.850	-4.479	-369.200
17.220	-4.850	-3.441	-379.800
17.225	-4.840	-2.571	-350.300
17.230	-4.830	-2.635	-360.800
17.235	-4.830	-3.001	-370.800
17.240	-4.820	-3.724	-343.100
17.245	-4.820	-5.106	-341.500
17.250	-4.830	-6.093	-355.600
17.255	-4.840	-6.218	-351.000
17.260	-4.840	-6.518	-342.400
17.265	-4.860	-7.125	-317.900
17.270	-4.870	-7.269	-319.400
17.275	-4.880	-7.508	-318.800
17.280	-4.900	-8.260	-321.500
17.285	-4.920	-8.571	-339.700
17.290	-4.940	-8.472	-306.300
17.295	-4.960	-8.626	-261.500
17.300	-4.980	-8.571	-217.900
17.305	-5.000	-8.276	-207.200
17.310	-5.020	-8.772	-213.300
17.315	-5.040	-9.672	-173.600
17.320	-5.070	-9.699	-134.300
17.325	-5.090	-9.278	-133.300
17.330	-5.120	-8.477	-122.400
17.335	-5.130	-5.068	-96.100
17.340	-5.110	1.219	-104.900
17.345	-5.070	9.103	-136.600
17.350	-4.980	16.988	-135.200
17.355	-4.860	20.465	-128.200
17.360	-4.730	20.431	-179.200
17.365	-4.610	NaN	-221.200
17.370	-4.490	NaN	-252.400
17.375	-4.360	20.474	-263.700
17.380	-4.240	NaN	-269.700
17.385	-4.120	20.475	-321.800
17.390	-4.000	NaN	-320.900
17.395	-3.880	NaN	-302.100
17.400	-3.760	NaN	-320.200
17.405	-3.640	NaN	-342.500
17.410	-3.520	20.475	-312.600
17.415	-3.400	NaN	-278.900
17.420	-3.280	20.469	-324.500
17.425	-3.170	NaN	-339.500
17.430	-3.050	20.097	-319.200
17.435	-2.940	17.614	-321.300
17.440	-2.850	13.093	-340.200
17.445	-2.790	7.776	-342.600
17.450	-2.750	2.759	-312.000
17.455	-2.730	-1.392	-323.300
17.460	-2.740	-5.408	-343.100
17.465	-2.760	-9.234	-334.200
17.470	-2.800	-12.131	-337.600
17.475	-2.860	-14.453	-349.400
17.480	-2.920	-16.459	-367.800
17.485	-2.990	-17.588	-358.900
17.490	-3.070	-18.416	-345.300
17.495	-3.150	-19.715	-354.900
17.500	-3.240	-20.464	-370.200
17.505	-3.320	-20.475	-402.300
17.510	-3.410	NaN	-387.900
17.515	-3.500	NaN	-370.200
17.520	-3.580	NaN	-411.600
17.525	-3.670	NaN	-438.500
17.530	-3.750	-20.478	-443.000
17.535	-3.840	NaN	-433.000
17.540	-3.920	NaN	-417.200
17.545	-4.010	NaN	-429.100
17.550	-4.090	-20.479	-422.700
17.555	-4.170	NaN	-401.100
17.560	-4.260	NaN	-425.000
17.565	-4.340	NaN	-437.600
17.570	-4.420	NaN	-428.800
17.575	-4.500	-20.479	-421.500
17.580	-4.590	-20.437	-420.400
17.585	-4.670	-19.788	-439.000
17.590	-4.740	-18.691	-442.200
17.595	-4.810	-18.024	-412.800
17.600	-4.880	-17.186	-330.800
17.605	-4.940	-15.706	-141.800
17.610	-4.990	-14.465	114.500
17.615	-5.040	-13.337	249.300
17.620	-5.080	-11.685	252.100
17.625	-5.110	-10.240	133.900
17.630	-5.130	-9.467	-142.800
17.635	-5.150	-8.679	-389.800
17.640	-5.170	-7.799	-485.100
17.645	-5.190	-7.181	-481.200
17.650	-5.200	-6.394	-442.100
17.655	-5.200	-5.314	-451.000
17.660	-5.200	-4.536	-468.100
17.665	-5.200	-3.939	-445.800
17.670	-5.190	-3.266	-418.200
17.675	-5.190	-3.354	-398.600
17.680	-5.180	-4.454	-407.800
17.685	-5.180	-5.373	-414.800
17.690	-5.190	-5.783	-417.200
17.695	-5.190	-6.324	-408.200
17.700	-5.200	-6.781	-383.900
17.705	-5.210	-6.951	-390.700
17.710	-5.220	-7.279	-382.600
17.715	-5.240	-7.591	-340.600
17.720	-5.250	-7.457	-325.500
17.725	-5.260	-7.446	-313.600
17.730	-5.280	-8.011	-294.800
17.735	-5.300	-8.373	-301.500
17.740	-5.310	-8.399	-296.900
17.745	-5.330	-8.636	-257.700
17.750	-5.350	-8.699	-196.700
17.755	-5.370	-8.468	-162.000
17.760	-5.390	-8.482	-172.500
17.765	-5.400	-8.504	-178.200
17.770	-5.420	-8.068	-170.900
17.775	-5.430	-6.568	-134.000
17.780	-5.430	-2.534	-121.300
17.785	-5.400	4.854	-164.800
17.790	-5.330	14.153	-190.500
17.795	-5.220	19.896	-207.800
17.800	-5.090	NaN	-221.500
17.805	-4.970	20.442	-231.500
17.810	-4.840	NaN	-270.500
17.815	-4.720	20.456	-308.200
17.820	-4.590	NaN	-316.900
17.825	-4.470	20.474	-312.100
17.830	-4.350	NaN	-329.000
17.835	-4.230	NaN	-336.300
17.840	-4.110	20.479	-295.900
17.845	-3.980	NaN	-279.500
17.850	-3.860	20.478	-310.200
17.855	-3.740	NaN	-338.300
17.860	-3.630	NaN	-345.800
17.865	-3.510	NaN	-363.600
17.870	-3.390	20.282	-366.400
17.875	-3.280	18.000	-334.900
17.880	-3.180	13.439	-344.100
17.885	-3.110	9.029	-347.100
17.890	-3.060	5.148	-342.200
17.895	-3.030	0.976	-339.400
17.900	-3.020	-2.921	-308.300
17.905	-3.030	-5.968	-328.000
17.910	-3.060	-8.820	-360.700
17.915	-3.090	-11.626	-359.700
17.920	-3.140	-13.816	-338.300
17.925	-3.200	-15.693	-329.200
17.930	-3.270	-17.510	-339.400
17.935	-3.350	-18.863	-328.000
17.940	-3.430	-19.878	-349.800
17.945	-3.510	-20.447	-394.100
17.950	-3.600	NaN	-403.400
17.955	-3.690	-20.479	-395.200
17.960	-3.770	NaN	-389.800
17.965	-3.860	-20.478	-382.700
17.970	-3.940	NaN	-388.300
17.975	-4.030	NaN	-405.600
17.980	-4.110	NaN	-407.300
17.985	-4.190	NaN	-391.600
17.990	-4.280	NaN	-396.600
17.995	-4.360	NaN	-415.000
18.000	-4.440	NaN	-369.400
18.005	-4.520	NaN	-333.000
18.010	-4.600	NaN	-359.300
18.015	-4.690	NaN	-380.900
18.020	-4.770	NaN	-407.600
18.025	-4.850	NaN	-427.200
18.030	-4.930	-20.412	-416.600
18.035	-5.000	-19.633	-362.300
18.040	-5.080	-18.128	-257.000
18.045	-5.140	-16.561	-104.000
18.050	-5.190	-14.781	61.800
18.055	-5.240	-12.907	142.400
18.060	-5.280	-11.541	108.500
18.065	-5.310	-10.259	-102.800
18.070	-5.330	-8.473	-394.700
18.075	-5.340	-6.829	-498.900
18.080	-5.350	-5.695	-475.300
18.085	-5.350	-4.465	-417.300
18.090	-5.340	-3.292	-396.700
18.095	-5.330	-2.644	-415.600
18.100	-5.320	-1.956	-396.700
18.105	-5.300	-1.136	-408.900
18.110	-5.290	-1.119	-417.700
18.115	-5.270	-1.792	-387.900
18.120	-5.250	-2.232	-352.600
18.125	-5.240	-2.581	-352.700
18.130	-5.230	-3.103	-361.600
18.135	-5.230	-3.231	-349.700
18.140	-5.220	-3.260	-337.700
18.145	-5.210	-3.924	-315.800
18.150	-5.210	-4.637	-295.300
18.155	-5.210	-5.039	-305.400
18.160	-5.210	-5.639	-321.900
18.165	-5.220	-6.178	-291.700
18.170	-5.230	-6.185	-249.400
18.175	-5.230	-6.128	-240.300
18.180	-5.240	-6.312	-237.900
18.185	-5.250	-6.463	-193.300
18.190	-5.260	-6.969	-174.500
18.195	-5.270	-8.085	-185.300
18.200	-5.290	-8.718	-147.400
18.205	-5.310	-8.470	-140.100
18.210	-5.320	-8.180	-156.200
18.215	-5.340	-6.876	-161.200
18.220	-5.340	-2.416	-155.600
18.225	-5.310	4.877	-148.100
18.230	-5.240	13.126	-177.800
18.235	-5.130	19.095	-197.300
18.240	-5.010	NaN	-216.500
18.245	-4.880	20.428	-234.800
18.250	-4.760	NaN	-265.400
18.255	-4.640	20.464	-299.600
18.260	-4.510	NaN	-299.600
18.265	-4.390	NaN	-285.600
18.270	-4.270	NaN	-282.700
18.275	-4.150	NaN	-328.500
18.280	-4.020	NaN	-343.500
