ChannelTitle=	Vol. Pulse	Blood Flow	ECG	
0	-0.39	-3.208	-41	
0.005	-0.4	-2.851	-40.1	
0.01	-0.41	-2.473	-43.8	
0.015	-0.42	-2.624	-49.7	
0.02	-0.44	-2.726	-50	
0.025	-0.45	-2.558	-56.2	
0.03	-0.46	-2.739	-59	
0.035	-0.47	-3.025	-31.8	
0.04	-0.48	-2.832	1.3	
0.045	-0.49	-2.686	96.3	
0.05	-0.51	-2.826	302.9	
0.055	-0.52	-2.636	551.9	
0.06	-0.53	-2.374	681.9	
0.065	-0.54	-2.565	657.1	
0.07	-0.55	-2.668	550.4	
0.075	-0.56	-2.462	295.8	
0.08	-0.57	-2.533	13.7	
0.085	-0.58	-2.658	-82.8	
0.09	-0.59	-2.364	-48.1	
0.095	-0.6	-2.236	-17.3	
0.1	-0.61	-2.461	-27.4	
0.105	-0.61	-2.342	-58.9	
0.11	-0.62	-2.089	-84.1	
0.115	-0.63	-2.218	-72.5	
0.12	-0.64	-2.209	-59.3	
0.125	-0.65	-1.941	-69.3	
0.13	-0.65	-2.059	-50.1	
0.135	-0.66	-2.327	-41.3	
0.14	-0.67	-2.236	-67.7	
0.145	-0.68	-2.33	-65.9	
0.15	-0.69	-2.796	-58.6	
0.155	-0.7	-2.914	-30.5	
0.16	-0.71	-2.863	-9.3	
0.165	-0.72	-3.203	-47.2	
0.17	-0.74	-3.394	-59.1	
0.175	-0.75	-3.215	-40.6	
0.18	-0.76	-3.334	-24.3	
0.185	-0.78	-3.549	-19.7	
0.19	-0.79	-3.288	-17	
0.195	-0.8	-3.117	-4.9	
0.2	-0.81	-3.286	-20.6	
0.205	-0.83	-3.115	-41.5	
0.21	-0.84	-2.869	-22.9	
0.215	-0.85	-3.139	-20.6	
0.22	-0.86	-3.354	-23.1	
0.225	-0.87	-3.322	7.9	
0.23	-0.89	-3.712	17.1	
0.235	-0.9	-4.161	15.6	
0.24	-0.92	-4.006	14.7	
0.245	-0.93	-3.868	9.8	
0.25	-0.95	-3.998	10.4	
0.255	-0.96	-3.683	26	
0.26	-0.98	-3.177	55	
0.265	-0.99	-3.029	84	
0.27	-1	-2.551	97.6	
0.275	-1	-1.386	71.9	
0.28	-1	-0.144	71.4	
0.285	-0.99	1.373	105.2	
0.29	-0.98	3.624	113.1	
0.295	-0.95	5.878	133.5	
0.3	-0.91	7.741	162.9	
0.305	-0.86	9.818	156	
0.31	-0.8	11.824	148.3	
0.315	-0.74	13.114	166.3	
0.32	-0.67	14.169	170.3	
0.325	-0.59	15.183	148.7	
0.33	-0.51	15.534	143.3	
0.335	-0.43	15.512	143	
0.34	-0.35	15.704	94.4	
0.345	-0.27	15.559	54.9	
0.35	-0.19	14.858	58	
0.355	-0.12	14.291	50.6	
0.36	-0.05	13.679	11.7	
0.365	0.01	12.501	-45.8	
0.37	0.07	11.318	-73.8	
0.375	0.13	10.337	-54.3	
0.38	0.18	8.87	-41.9	
0.385	0.21	7.165	-64.9	
0.39	0.25	5.844	-83.8	
0.395	0.27	4.396	-79.3	
0.4	0.29	2.62	-69.6	
0.405	0.29	1.231	-84.9	
0.41	0.3	0.059	-103.7	
0.415	0.29	-1.406	-108.1	
0.42	0.28	-2.538	-86.7	
0.425	0.26	-3.063	-60.5	
0.43	0.25	-3.661	-93.4	
0.435	0.23	-4.191	-108.9	
0.44	0.2	-4.183	-85.8	
0.445	0.18	-4.211	-84.1	
0.45	0.16	-4.429	-81.1	
0.455	0.14	-4.111	-75	
0.46	0.12	-3.533	-79.7	
0.465	0.1	-3.385	-62.2	
0.47	0.08	-3.209	-41.1	
0.475	0.07	-2.782	-66.6	
0.48	0.05	-2.741	-88	
0.485	0.04	-2.875	-80.2	
0.49	0.03	-2.674	-51.4	
0.495	0.01	-2.753	-38.5	
0.5	0	-3.334	-34.1	
0.505	-0.02	-3.665	-23	
0.51	-0.04	-3.837	-36.5	
0.515	-0.06	-4.289	-45.6	
0.52	-0.08	-4.453	-56.5	
0.525	-0.1	-4.169	-55.1	
0.53	-0.12	-4.136	-41	
0.535	-0.14	-4.117	-44.4	
0.54	-0.16	-3.552	-50	
0.545	-0.18	-3.007	-47.4	
0.55	-0.19	-2.738	-20.5	
0.555	-0.2	-2.118	-7.3	
0.56	-0.21	-1.388	-14.9	
0.565	-0.21	-1.113	-33.8	
0.57	-0.22	-0.787	-62.3	
0.575	-0.22	-0.268	-55.1	
0.58	-0.22	-0.264	-40.3	
0.585	-0.22	-0.482	-32.6	
0.59	-0.22	-0.228	-41.6	
0.595	-0.22	-0.028	-50.4	
0.6	-0.22	-0.135	-47.3	
0.605	-0.22	0.131	-49.6	
0.61	-0.22	0.569	-35	
0.615	-0.21	0.674	-21.3	
0.62	-0.21	1.001	-36.8	
0.625	-0.2	1.659	-40.8	
0.63	-0.19	1.815	-27.7	
0.635	-0.18	1.488	-25.9	
0.64	-0.17	1.193	-31.5	
0.645	-0.17	0.547	-15.5	
0.65	-0.17	-0.483	-13.2	
0.655	-0.17	-1.012	-34	
0.66	-0.18	-1.113	-16.5	
0.665	-0.18	-1.426	-39	
0.67	-0.19	-1.541	-65.5	
0.675	-0.19	-1.323	-57.6	
0.68	-0.2	-1.468	-58.4	
0.685	-0.21	-1.77	-38	
0.69	-0.21	-1.688	-32.7	
0.695	-0.22	-1.761	-33.1	
0.7	-0.23	-2.225	-21.3	
0.705	-0.24	-2.391	-14.6	
0.71	-0.25	-2.435	-18.9	
0.715	-0.26	-2.942	-45.4	
0.72	-0.28	-3.389	-39	
0.725	-0.29	-3.541	-21	
0.73	-0.31	-4.027	-41.9	
0.735	-0.33	-4.569	-40.3	
0.74	-0.35	-4.544	-35.2	
0.745	-0.38	-4.489	-28.3	
0.75	-0.4	-4.69	-15.3	
0.755	-0.42	-4.536	-40.8	
0.76	-0.44	-4.242	-53.6	
0.765	-0.46	-4.369	-42.7	
0.77	-0.48	-4.364	-32.7	
0.775	-0.5	-4.004	-23.9	
0.78	-0.51	-3.979	-36	
0.785	-0.53	-4.103	-22.6	
0.79	-0.55	-3.868	-10.2	
0.795	-0.56	-3.839	-56.7	
0.8	-0.58	-4.2	-66.8	
0.805	-0.6	-4.209	-33.5	
0.81	-0.62	-4.011	-27.7	
0.815	-0.64	-4.151	-34.5	
0.82	-0.65	-4.117	-30.6	
0.825	-0.67	-3.735	-21.6	
0.83	-0.69	-3.684	-20.4	
0.835	-0.7	-3.771	-25.2	
0.84	-0.72	-3.48	-14.7	
0.845	-0.73	-3.353	-25	
0.85	-0.74	-3.58	-36.8	
0.855	-0.76	-3.436	-20.7	
0.86	-0.77	-3.117	-24.7	
0.865	-0.78	-3.249	-30	
0.87	-0.8	-3.331	-36.1	
0.875	-0.81	-3.142	-39.6	
0.88	-0.82	-3.311	-42.9	
0.885	-0.83	-3.536	-36.4	
0.89	-0.85	-3.229	-17.1	
0.895	-0.86	-2.987	-17.2	
0.9	-0.87	-3.063	-16.9	
0.905	-0.88	-2.819	-5.3	
0.91	-0.89	-2.489	-10.3	
0.915	-0.9	-2.63	-28.7	
0.92	-0.91	-2.686	-23.8	
0.925	-0.92	-2.426	-23.3	
0.93	-0.92	-2.496	-39.9	
0.935	-0.93	-2.659	-43.7	
0.94	-0.94	-2.376	-33.3	
0.945	-0.95	-2.236	-26.5	
0.95	-0.96	-2.493	-20.3	
0.955	-0.96	-2.473	-12.5	
0.96	-0.97	-2.386	-18.6	
0.965	-0.98	-2.774	-32.1	
0.97	-0.99	-3.073	-32.3	
0.975	-1	-3.057	-30.3	
0.98	-1.01	-3.363	-36.8	
0.985	-1.03	-3.758	-28.1	
0.99	-1.04	-3.691	-10.1	
0.995	-1.05	-3.674	-3.2	
1	-1.07	-3.877	-13.5	
1.005	-1.08	-3.623	-29.3	
1.01	-1.09	-3.172	-15.2	
1.015	-1.1	-3.159	-2.4	
1.02	-1.12	-3.119	-13.9	
1.025	-1.12	-2.888	-18.3	
1.03	-1.13	-3.109	-11.4	
1.035	-1.15	-3.471	-5.2	
1.04	-1.16	-3.314	-21.8	
1.045	-1.17	-3.152	-21.3	
1.05	-1.18	-3.258	-4.4	
1.055	-1.19	-3.011	-15.9	
1.06	-1.2	-2.666	-24.4	
1.065	-1.21	-2.798	-22.5	
1.07	-1.22	-2.851	-19.9	
1.075	-1.22	-2.611	0.9	
1.08	-1.23	-2.789	21.4	
1.085	-1.24	-3.192	43.3	
1.09	-1.25	-3.198	51.7	
1.095	-1.26	-3.294	26.7	
1.1	-1.27	-3.704	18.4	
1.105	-1.28	-3.728	30.9	
1.11	-1.3	-3.571	25.1	
1.115	-1.31	-3.824	7.6	
1.12	-1.32	-3.925	2.8	
1.125	-1.34	-3.661	-3.6	
1.13	-1.35	-3.726	-16.2	
1.135	-1.36	-3.879	-18.5	
1.14	-1.37	-3.595	-13.5	
1.145	-1.38	-3.477	-13	
1.15	-1.4	-3.739	-17.7	
1.155	-1.41	-3.671	-26.7	
1.16	-1.42	-3.445	-12.8	
1.165	-1.43	-3.599	-2.8	
1.17	-1.44	-3.607	-18.2	
1.175	-1.45	-3.283	-20.7	
1.18	-1.46	-3.3	-34.7	
1.185	-1.47	-3.479	-49	
1.19	-1.48	-3.282	-37.6	
1.195	-1.49	-3.236	-12.7	
1.2	-1.5	-3.503	8.9	
1.205	-1.51	-3.356	-19.4	#3 Resting Heartrate 
1.21	-1.52	-3.024	-47	
1.215	-1.53	-3.103	15.3	
1.22	-1.54	-3.066	156.8	
1.225	-1.55	-2.724	381.5	
1.23	-1.55	-2.802	630.3	
1.235	-1.56	-3.094	735.9	
1.24	-1.57	-3.003	687.3	
1.245	-1.58	-3.056	548.8	
1.25	-1.59	-3.434	255.3	
1.255	-1.6	-3.386	-11.8	
1.26	-1.6	-3.113	-56.6	
1.265	-1.61	-3.214	-36.4	
1.27	-1.62	-3.138	-28.3	
1.275	-1.63	-2.692	-40.5	
1.28	-1.63	-2.594	-58.9	
1.285	-1.64	-2.673	-52	
1.29	-1.65	-2.406	-39.7	
1.295	-1.65	-2.358	-46.3	
1.3	-1.65	-2.771	-57.8	
1.305	-1.66	-2.9	-45.3	
1.31	-1.67	-2.876	-44.8	
1.315	-1.68	-3.253	-37.7	
1.32	-1.69	-3.514	-33.9	
1.325	-1.69	-3.422	-60.7	
1.33	-1.7	-3.594	-57.2	
1.335	-1.72	-3.777	-50.7	
1.34	-1.73	-3.372	-38.1	
1.345	-1.73	-2.986	-9.7	
1.35	-1.74	-2.962	-13.6	
1.355	-1.75	-2.671	-14	
1.36	-1.75	-2.348	-19	
1.365	-1.75	-2.557	-42.8	
1.37	-1.76	-2.698	-34.3	
1.375	-1.77	-2.51	-11.2	
1.38	-1.77	-2.674	-4.1	
1.385	-1.78	-3.031	-7.2	
1.39	-1.78	-3.033	-3.8	
1.395	-1.79	-3.182	17	
1.4	-1.8	-3.675	13.3	
1.405	-1.81	-3.761	12.7	
1.41	-1.82	-3.57	26.1	
1.415	-1.83	-3.681	33.7	
1.42	-1.84	-3.621	37.9	
1.425	-1.85	-3.212	32.5	
1.43	-1.86	-3.115	51.5	
1.435	-1.86	-3.061	51.3	
1.44	-1.87	-2.382	61	
1.445	-1.87	-1.5	104.3	
1.45	-1.87	-0.458	99.8	
1.455	-1.85	1.544	100.6	
1.46	-1.83	4.157	121.3	
1.465	-1.8	6.51	119.2	
1.47	-1.75	8.923	138	
1.475	-1.69	11.488	159.5	
1.48	-1.62	13.412	165.6	
1.485	-1.54	14.851	169.7	
1.49	-1.46	16.345	157.3	
1.495	-1.37	17.309	149.4	
1.5	-1.27	17.466	149.6	
1.505	-1.18	17.512	135.8	
1.51	-1.09	17.352	124.3	
1.515	-1	16.509	118.1	
1.52	-0.91	15.61	93.8	
1.525	-0.83	14.918	75.7	
1.53	-0.76	13.765	63.4	
1.535	-0.69	12.361	47.4	
1.54	-0.63	11.262	23.6	
1.545	-0.57	9.93	-11.9	
1.55	-0.52	8.152	-21.6	
1.555	-0.48	6.643	-20.3	
1.56	-0.45	5.217	-40.9	
1.565	-0.43	3.344	-56.7	
1.57	-0.42	1.612	-56.3	
1.575	-0.41	0.306	-39.3	
1.58	-0.41	-1.184	-33.8	
1.585	-0.42	-2.623	-69.5	
1.59	-0.43	-3.434	-89.1	
1.595	-0.45	-4.204	-68.8	
1.6	-0.47	-5.168	-53.5	
1.605	-0.49	-5.578	-50.7	
1.61	-0.52	-5.626	-41.7	
1.615	-0.55	-5.889	-56.8	
1.62	-0.57	-5.793	-64.6	
1.625	-0.6	-5.183	-41.3	
1.63	-0.62	-4.864	-48.9	
1.635	-0.64	-4.735	-62.4	
1.64	-0.66	-4.285	-54.4	
1.645	-0.68	-4.025	-35.8	
1.65	-0.7	-4.167	-23.2	
1.655	-0.71	-4.031	-24.4	
1.66	-0.73	-3.791	-19.2	
1.665	-0.74	-4.041	-21.3	
1.67	-0.76	-4.257	-27.2	
1.675	-0.78	-4.136	-28.3	
1.68	-0.8	-4.296	-21.5	
1.685	-0.82	-4.527	-21.8	
1.69	-0.83	-4.248	-37.7	
1.695	-0.85	-4.004	-40.5	
1.7	-0.87	-4.032	-22.3	
1.705	-0.88	-3.627	-3.8	
1.71	-0.89	-2.973	-17.9	
1.715	-0.9	-2.67	-41.6	
1.72	-0.91	-2.237	-27.4	
1.725	-0.92	-1.476	-18.8	
1.73	-0.92	-1.074	-27	
1.735	-0.92	-0.856	-14.3	
1.74	-0.92	-0.268	-15.6	
1.745	-0.91	0.177	-34.2	
1.75	-0.91	0.212	-32	
1.755	-0.9	0.508	-19.6	
1.76	-0.9	0.919	-30.7	
1.765	-0.89	0.862	-34.3	
1.77	-0.88	0.854	-23.3	
1.775	-0.87	1.195	-34.6	
1.78	-0.86	1.243	-23.5	
1.785	-0.85	1.162	-20.9	
1.79	-0.84	1.468	-50.7	
1.795	-0.83	1.589	-50.8	
1.8	-0.82	1.339	-52.4	
1.805	-0.81	1.436	-49.6	
1.81	-0.79	1.666	-31.7	
1.815	-0.78	1.424	-28.6	
1.82	-0.77	1.227	-37.1	
1.825	-0.76	1.295	-42.4	
1.83	-0.75	0.936	-27.9	
1.835	-0.75	0.326	-21.3	
1.84	-0.74	0.032	-35.8	
1.845	-0.74	-0.439	-35.7	
1.85	-0.74	-1.281	-30.2	
1.855	-0.75	-1.744	-28.2	
1.86	-0.75	-1.944	-21	
1.865	-0.76	-2.434	-24	
1.87	-0.77	-2.724	-35.9	
1.875	-0.78	-2.641	-41.4	
1.88	-0.79	-2.879	-34.8	
1.885	-0.8	-3.227	-26.4	
1.89	-0.81	-3.106	-27.5	
1.895	-0.82	-3.054	-18.3	
1.9	-0.84	-3.326	-12.3	
1.905	-0.85	-3.256	-25.3	
1.91	-0.86	-3.019	-25.2	
1.915	-0.87	-3.196	-15.6	
1.92	-0.88	-3.304	-20.5	
1.925	-0.9	-3.154	-34	
1.93	-0.91	-3.413	-40.5	
1.935	-0.92	-3.834	-32.7	
1.94	-0.94	-3.808	-25.5	
1.945	-0.95	-3.873	-15.7	
1.95	-0.97	-4.266	11.6	
1.955	-0.98	-4.258	-21.9	
1.96	-1	-3.984	-56.8	
1.965	-1.02	-4.019	-25.3	
1.97	-1.03	-3.871	-20.7	
1.975	-1.05	-3.359	-14.1	
1.98	-1.06	-3.23	-5	
1.985	-1.07	-3.344	-18.2	
1.99	-1.08	-3.124	-19.9	
1.995	-1.09	-3.061	-9.3	
2	-1.1	-3.344	10.1	
2.005	-1.11	-3.238	-4.6	
2.01	-1.12	-2.922	-34.2	
2.015	-1.13	-3.005	-37.2	
2.02	-1.14	-2.985	-17.3	
2.025	-1.15	-2.657	-2.4	
2.03	-1.16	-2.699	-24	
2.035	-1.17	-2.879	-36.9	
2.04	-1.18	-2.606	-23.9	
2.045	-1.18	-2.413	-25.4	
2.05	-1.19	-2.576	-26.8	
2.055	-1.2	-2.433	-3.1	
2.06	-1.2	-2.146	10.2	
2.065	-1.21	-2.283	10.7	
2.07	-1.22	-2.314	18.9	
2.075	-1.22	-2	35.6	
2.08	-1.22	-2.043	39.8	
2.085	-1.23	-2.286	58.8	
2.09	-1.24	-2.152	67.8	
2.095	-1.24	-2.172	15.8	
2.1	-1.25	-2.553	-12.8	
2.105	-1.25	-2.552	5.5	
2.11	-1.26	-2.331	17	
2.115	-1.27	-2.462	-6.8	
2.12	-1.27	-2.45	-23.9	
2.125	-1.28	-2.092	-15.4	
2.13	-1.28	-2.081	-30.1	
2.135	-1.29	-2.286	-40.6	
2.14	-1.29	-2.157	-28.5	
2.145	-1.3	-2.196	-16.7	
2.15	-1.3	-2.589	-15	
2.155	-1.31	-2.594	-30.8	
2.16	-1.32	-2.381	-35.6	
2.165	-1.32	-2.544	-21.1	
2.17	-1.33	-2.571	-6.3	
2.175	-1.34	-2.238	-1	
2.18	-1.34	-2.252	-14.8	
2.185	-1.35	-2.421	-29.2	
2.19	-1.35	-2.145	-21.8	
2.195	-1.36	-1.985	-25.3	
2.2	-1.36	-2.184	-37.8	
2.205	-1.37	-2.086	-6.8	
2.21	-1.37	-1.922	70.6	
2.215	-1.37	-2.208	199.8	
2.22	-1.38	-2.324	426.5	
2.225	-1.38	-2.043	621.3	
2.23	-1.39	-2.098	641.4	
2.235	-1.39	-2.344	534.6	
2.24	-1.4	-2.226	315.2	
2.245	-1.4	-2.252	40.9	
2.25	-1.41	-2.613	-88.4	
2.255	-1.41	-2.606	-62.6	
2.26	-1.42	-2.422	-22.6	
2.265	-1.43	-2.604	-23.2	
2.27	-1.43	-2.639	-34.7	
2.275	-1.44	-2.339	-26.8	
2.28	-1.44	-2.416	-16.9	
2.285	-1.45	-2.695	-28.2	
2.29	-1.46	-2.589	-47	
2.295	-1.46	-2.584	-51.2	
2.3	-1.47	-2.874	-51.1	
2.305	-1.48	-2.776	-38.1	
2.31	-1.48	-2.479	-29.4	
2.315	-1.49	-2.598	-29.4	
2.32	-1.5	-2.675	-30.5	
2.325	-1.5	-2.482	-22.4	
2.33	-1.51	-2.639	-6.5	
2.335	-1.51	-2.908	7	
2.34	-1.52	-2.734	4.4	
2.345	-1.53	-2.672	-13.7	
2.35	-1.53	-2.958	-12	
2.355	-1.54	-2.891	-0.9	
2.36	-1.55	-2.628	10.6	
2.365	-1.55	-2.726	18.9	
2.37	-1.56	-2.679	16.1	
2.375	-1.57	-2.336	22.2	
2.38	-1.57	-2.433	25.5	
2.385	-1.58	-2.752	13.1	
2.39	-1.58	-2.707	10.3	
2.395	-1.59	-2.806	20.8	
2.4	-1.6	-3.198	19.4	
2.405	-1.61	-3.128	22.5	
2.41	-1.61	-2.78	51.5	
2.415	-1.62	-2.758	73.1	
2.42	-1.63	-2.549	78.7	
2.425	-1.63	-1.989	96.9	
2.43	-1.63	-1.882	88.9	
2.435	-1.63	-2.082	71.4	
2.44	-1.64	-1.973	102.9	
2.445	-1.64	-1.998	137.9	
2.45	-1.64	-2.231	152.2	
2.455	-1.65	-1.755	164.4	
2.46	-1.64	-0.558	162.4	
2.465	-1.64	0.819	162.9	
2.47	-1.62	2.752	186.8	
2.475	-1.59	5.216	206.3	
2.48	-1.55	7.287	203.8	
2.485	-1.51	9.033	190.3	
2.49	-1.45	10.958	181.6	
2.495	-1.38	12.443	176	
2.5	-1.31	13.179	164.3	
2.505	-1.24	13.881	140.6	
2.51	-1.16	14.406	111.3	
2.515	-1.09	14.233	91.4	
2.52	-1.01	13.953	69.2	
2.525	-0.94	13.776	34.8	
2.53	-0.87	13.038	18.8	
2.535	-0.8	11.956	-2.7	
2.54	-0.74	11.107	-15.3	
2.545	-0.68	9.989	4.6	
2.55	-0.63	8.418	-33.8	
2.555	-0.59	7.151	-85.7	
2.56	-0.56	6.064	-86.4	
2.565	-0.53	4.598	-72.2	
2.57	-0.51	3.29	-61.3	
2.575	-0.49	2.382	-86.6	
2.58	-0.48	1.186	-94.3	
2.585	-0.47	-0.098	-92.2	
2.59	-0.47	-0.888	-99.3	
2.595	-0.48	-1.759	-73.7	
2.6	-0.49	-2.908	-55.6	
2.605	-0.5	-3.555	-62.7	
2.61	-0.52	-3.886	-69.3	
2.615	-0.54	-4.431	-65.7	
2.62	-0.56	-4.607	-56.7	
2.625	-0.58	-4.273	-55.2	
2.63	-0.59	-4.236	-50.5	
2.635	-0.61	-4.418	-47.8	
2.64	-0.63	-4.276	-50	
2.645	-0.65	-4.301	-45.6	
2.65	-0.67	-4.68	-47.9	
2.655	-0.69	-4.69	-38.8	
2.66	-0.71	-4.523	-37.1	
2.665	-0.73	-4.771	-40.2	
2.67	-0.75	-4.865	-23.3	
2.675	-0.77	-4.534	-7.3	
2.68	-0.79	-4.501	-23	
2.685	-0.81	-4.641	-55.8	
2.69	-0.83	-4.385	-65	
2.695	-0.85	-4.249	-38.8	
2.7	-0.86	-4.438	-1.9	
2.705	-0.88	-4.241	-27.5	
2.71	-0.9	-3.849	-44	
2.715	-0.91	-3.817	-29.7	
2.72	-0.93	-3.624	-31.6	
2.725	-0.94	-3.068	-18.5	
2.73	-0.95	-2.823	-21.5	
2.735	-0.96	-2.691	-37.8	
2.74	-0.97	-2.089	-41.9	
2.745	-0.97	-1.526	-32.6	
2.75	-0.97	-1.235	-34.9	
2.755	-0.97	-0.554	-32.8	
2.76	-0.97	0.312	-21.3	
2.765	-0.96	0.775	-34.6	
2.77	-0.95	1.361	-33.2	
2.775	-0.94	2.283	-28.3	
2.78	-0.92	2.771	-46.7	
2.785	-0.9	2.963	-52.6	
2.79	-0.88	3.492	-39.1	
2.795	-0.86	3.852	-19.4	
2.8	-0.84	3.704	-38.1	
2.805	-0.82	3.704	-57.7	
2.81	-0.79	3.767	-44.3	
2.815	-0.77	3.508	-38.4	
2.82	-0.75	3.542	-31.5	
2.825	-0.73	3.458	-35.1	
2.83	-0.71	1.949	-15.1	
2.835	-0.7	0.054	4.7	
2.84	-0.7	-0.317	-15.3	
2.845	-0.7	0.191	-24.9	
2.85	-0.7	0.052	-43.7	
2.855	-0.69	-0.693	-45.7	
2.86	-0.7	-1.51	-15.7	
2.865	-0.7	-2.191	-21.7	
2.87	-0.71	-2.469	-27.5	
2.875	-0.72	-2.533	-19.3	
2.88	-0.73	-2.788	-35.4	
2.885	-0.74	-2.621	-31.8	
2.89	-0.75	-1.631	-26.9	
2.895	-0.75	-1.124	-33.8	
2.9	-0.75	-1.769	-15.3	
2.905	-0.76	-2.476	14.7	
2.91	-0.77	-2.847	26	
2.915	-0.78	-3.217	25.1	
2.92	-0.8	-3.138	25.8	
2.925	-0.81	-2.631	32.2	
2.93	-0.82	-2.616	37.4	
2.935	-0.83	-3.01	20	
2.94	-0.84	-3.186	-15.6	
2.945	-0.85	-3.484	-45.1	
2.95	-0.86	-3.964	-35.7	
2.955	-0.88	-3.918	-15.3	
2.96	-0.9	-3.599	-10	
2.965	-0.91	-3.666	-18.1	
2.97	-0.92	-3.71	-48.1	
2.975	-0.94	-3.562	-53.3	
2.98	-0.95	-3.883	-21.8	
2.985	-0.97	-4.398	-11.8	
2.99	-0.99	-4.339	-36.5	
2.995	-1	-4.137	-42.2	
3	-1.02	-4.096	-28.2	
3.005	-1.03	-3.638	-32	
3.01	-1.04	-3.025	-35.4	
3.015	-1.05	-2.902	-37.9	
3.02	-1.06	-2.803	-37.6	
3.025	-1.07	-2.434	-17.9	
3.03	-1.08	-2.406	-21.3	
3.035	-1.09	-2.534	-37.7	
3.04	-1.09	-2.218	-35.8	
3.045	-1.1	-1.961	-16.9	
3.05	-1.1	-2.03	74.6	
3.055	-1.11	-1.792	254.5	
3.06	-1.11	-1.472	457.9	
3.065	-1.11	-1.686	558.4	
3.07	-1.12	-1.885	538.3	
3.075	-1.12	-1.732	440.2	
3.08	-1.13	-1.877	187.5	
3.085	-1.13	-2.152	-50.7	
3.09	-1.14	-1.982	-97.8	
3.095	-1.14	-1.921	-42.4	
3.1	-1.15	-2.203	-0.2	
3.105	-1.15	-2.132	-44.3	
3.11	-1.16	-1.891	-77.5	
3.115	-1.16	-2.046	-61.8	
3.12	-1.17	-2.062	-52.9	
3.125	-1.17	-1.704	-48	
3.13	-1.17	-1.683	-48.9	
3.135	-1.18	-1.784	-45.6	
3.14	-1.18	-1.436	-29.4	
3.145	-1.18	-1.251	-20.6	
3.15	-1.18	-1.501	-13.3	
3.155	-1.18	-1.463	-16.5	
3.16	-1.19	-1.264	-41.2	
3.165	-1.19	-1.456	-35.8	
3.17	-1.19	-1.531	-24.9	
3.175	-1.19	-1.296	-36.9	
3.18	-1.19	-1.443	-50.3	
3.185	-1.19	-1.773	-36.6	
3.19	-1.2	-1.681	-11.3	
3.195	-1.2	-1.668	-9	
3.2	-1.2	-1.964	-6.9	
3.205	-1.21	-1.908	-6.2	
3.21	-1.21	-1.7	-10.1	
3.215	-1.22	-1.921	-0.7	
3.22	-1.22	-2.027	9.7	
3.225	-1.22	-1.756	18.7	
3.23	-1.23	-1.828	24	
3.235	-1.23	-2.109	21.3	
3.24	-1.24	-2.043	38.8	
3.245	-1.24	-2.155	39	
3.25	-1.25	-2.649	26.3	
3.255	-1.25	-2.768	30.7	
3.26	-1.26	-2.595	47.3	
3.265	-1.27	-2.689	59.6	
3.27	-1.28	-2.591	70.2	
3.275	-1.28	-2.1	95.5	
3.28	-1.29	-1.949	102.1	
3.285	-1.29	-1.998	110.5	
3.29	-1.29	-1.571	128	
3.295	-1.29	-1.046	134.7	
3.3	-1.29	-0.549	144.3	
3.305	-1.29	0.666	168	
3.31	-1.27	2.37	192.2	
3.315	-1.25	3.849	203.5	
3.32	-1.22	5.514	208.2	
3.325	-1.19	7.534	179.8	
3.33	-1.14	9.134	146.8	
3.335	-1.08	10.372	163.9	
3.34	-1.02	11.724	169	
3.345	-0.96	12.627	126.4	
3.35	-0.89	12.857	69	
3.355	-0.82	13.118	33.9	
3.36	-0.75	13.286	27.3	
3.365	-0.68	12.803	8.6	
3.37	-0.62	12.21	-15.4	
3.375	-0.55	11.794	-49.3	
3.38	-0.5	10.892	-89.9	
3.385	-0.44	9.707	-85.7	
3.39	-0.39	8.822	-68.6	
3.395	-0.35	7.691	-70.4	
3.4	-0.31	6.105	-75.7	
3.405	-0.29	4.828	-85.6	
3.41	-0.26	3.728	-100.2	
3.415	-0.25	2.235	-113.1	
3.42	-0.24	0.896	-101.3	
3.425	-0.24	0.013	-92.6	
3.43	-0.24	-0.999	-103.4	
3.435	-0.24	-1.945	-103.4	
3.44	-0.25	-2.34	-102.1	
3.445	-0.26	-2.777	-105.3	
3.45	-0.28	-3.492	-88.3	
3.455	-0.3	-3.744	-77.6	
3.46	-0.31	-3.666	-97.2	
3.465	-0.33	-3.863	-95.4	
3.47	-0.35	-3.881	-63.4	
3.475	-0.36	-3.558	-41.6	
3.48	-0.38	-3.627	-65.2	
3.485	-0.4	-3.903	-82.4	
3.49	-0.42	-3.777	-71.2	
3.495	-0.43	-3.781	-51.6	
3.5	-0.45	-4.158	-42.4	
3.505	-0.47	-4.214	-71.5	
3.51	-0.49	-4.118	-73.3	
3.515	-0.51	-4.449	-54.2	
3.52	-0.53	-4.63	-51.3	
3.525	-0.55	-4.367	-53.6	
3.53	-0.57	-4.346	-56	
3.535	-0.59	-4.414	-50.5	
3.54	-0.6	-4.001	-53.2	
3.545	-0.62	-3.644	-59.2	
3.55	-0.64	-3.636	-48.5	
3.555	-0.65	-3.301	-33.7	
3.56	-0.66	-2.801	-36.7	
3.565	-0.67	-2.735	-54.7	
3.57	-0.68	-2.589	-61.5	
3.575	-0.69	-2.098	-58.3	
3.58	-0.7	-1.951	-60	
3.585	-0.7	-1.928	-41.4	
3.59	-0.71	-1.408	-29.8	
3.595	-0.71	-0.918	-43.2	
3.6	-0.71	-0.686	-53.1	
3.605	-0.71	-0.028	-25.2	
3.61	-0.71	0.856	-20.7	
3.615	-0.7	1.297	-69.1	
3.62	-0.69	1.804	-71.9	
3.625	-0.67	2.643	-49.2	
3.63	-0.66	3.051	-29.7	
3.635	-0.64	3.169	-28.3	
3.64	-0.62	3.545	-49.7	
3.645	-0.6	3.638	-33.1	
3.65	-0.58	3.236	-37.7	
3.655	-0.56	3.034	-61.2	
3.66	-0.54	2.885	-38.4	
3.665	-0.53	2.259	-25	
3.67	-0.51	1.728	-24.5	
3.675	-0.5	1.554	-20.6	
3.68	-0.49	1.006	-27.8	
3.685	-0.49	0.251	-30.1	
3.69	-0.49	-0.079	-16.9	
3.695	-0.49	-0.469	-22.7	
3.7	-0.49	-1.143	-22.8	
3.705	-0.49	-1.414	-23.9	
3.71	-0.5	-1.446	-29.2	
3.715	-0.5	-1.84	-1	
3.72	-0.51	-2.101	17.3	
3.725	-0.52	-1.962	29.3	
3.73	-0.53	-2.075	42.9	
3.735	-0.53	-2.308	20.7	
3.74	-0.54	-2.132	-1.7	
3.745	-0.55	-2.126	-8.8	
3.75	-0.56	-2.629	-26.1	
3.755	-0.57	-2.908	-25.8	
3.76	-0.58	-2.976	-31.1	
3.765	-0.6	-3.374	-34.2	
3.77	-0.61	-3.618	-30.4	
3.775	-0.63	-3.466	-40.6	
3.78	-0.64	-3.657	-37.9	
3.785	-0.66	-4.031	-30.7	
3.79	-0.67	-3.951	-35.3	
3.795	-0.69	-3.908	-42.6	
3.8	-0.71	-4.158	-54	
3.805	-0.72	-4.047	-42.3	
3.81	-0.74	-3.769	-24.7	
3.815	-0.76	-3.923	-40.9	
3.82	-0.77	-3.971	-45	
3.825	-0.79	-3.634	-39.2	
3.83	-0.8	-3.603	-33.5	
3.835	-0.82	-3.722	-21.8	
3.84	-0.83	-3.432	-33.1	
3.845	-0.84	-3.27	-23.6	
3.85	-0.86	-3.486	64.5	
3.855	-0.87	-3.371	229.5	
3.86	-0.88	-3.064	448.3	
3.865	-0.89	-3.143	598.1	
3.87	-0.91	-3.106	603.6	
3.875	-0.92	-2.699	523.7	
3.88	-0.93	-2.614	329.6	
3.885	-0.93	-2.718	67.8	
3.89	-0.94	-2.42	-71.4	
3.895	-0.95	-2.24	-80.3	
3.9	-0.96	-2.458	-42.1	
3.905	-0.97	-2.402	-21.1	
3.91	-0.97	-2.233	-29.6	
3.915	-0.98	-2.466	-44.3	
3.92	-0.99	-2.501	-71	
3.925	-1	-2.078	-78.8	
3.93	-1	-1.963	-53.8	
3.935	-1.01	-2.072	-36.3	
3.94	-1.01	-1.811	-28	
3.945	-1.01	-1.67	-32.5	
3.95	-1.02	-1.944	-52.2	
3.955	-1.02	-1.988	-43.3	
3.96	-1.03	-1.927	-31.5	
3.965	-1.03	-2.297	-26.6	
3.97	-1.04	-2.535	-23.2	
3.975	-1.05	-2.364	-30.4	
3.98	-1.06	-2.489	-39.5	
3.985	-1.07	-2.729	-23.5	
3.99	-1.07	-2.452	-6.8	
3.995	-1.08	-2.203	-21.7	
4	-1.09	-2.298	-14.9	
4.005	-1.09	-2.126	-20.2	
4.01	-1.1	-1.906	-15.9	
4.015	-1.1	-2.238	14.1	
4.02	-1.11	-2.533	5.9	
4.025	-1.12	-2.406	-7.9	
4.03	-1.12	-2.495	-21.3	
4.035	-1.13	-2.694	-19.5	
4.04	-1.14	-2.478	1.4	
4.045	-1.15	-2.409	10.1	
4.05	-1.15	-2.757	34.4	
4.055	-1.16	-2.805	58.4	
4.06	-1.17	-2.654	40.1	
4.065	-1.18	-2.849	35.5	
4.07	-1.19	-2.839	60.8	
4.075	-1.2	-2.31	74.7	
4.08	-1.2	-1.872	95.2	
4.085	-1.2	-1.251	118.4	
4.09	-1.2	0.218	108.1	
4.095	-1.19	2.011	103.3	
4.1	-1.17	3.714	155.5	
4.105	-1.14	5.768	181.1	
4.11	-1.1	7.859	153.9	
4.115	-1.05	9.321	149.2	
4.12	-1	10.622	161.7	
4.125	-0.94	12.004	169.8	
4.13	-0.87	12.756	163.6	
4.135	-0.8	13.034	160.6	
4.14	-0.73	13.499	157.8	
4.145	-0.66	13.661	121.7	
4.15	-0.59	13.244	67.5	
4.155	-0.52	12.935	33	
4.16	-0.46	12.593	19.5	
4.165	-0.4	11.679	9.9	
4.17	-0.34	10.762	-1.8	
4.175	-0.28	10.118	-20.9	
4.18	-0.23	9.034	-25.1	
4.185	-0.19	7.676	-47.1	
4.19	-0.16	6.684	-69.6	
4.195	-0.12	5.588	-41.9	
4.2	-0.1	4.119	-60.9	
4.205	-0.08	2.942	-101.8	
4.21	-0.07	1.899	-86.2	
4.215	-0.06	0.416	-78.1	
4.22	-0.06	-0.904	-79.8	
4.225	-0.07	-1.694	-80	
4.23	-0.08	-2.586	-91.5	
4.235	-0.1	-3.416	-94.5	
4.24	-0.11	-3.658	-93.8	
4.245	-0.13	-3.923	-92.6	
4.25	-0.15	-4.503	-86	
4.255	-0.17	-4.666	-83.9	
4.26	-0.2	-4.496	-83.8	
4.265	-0.22	-4.536	-77.9	
4.27	-0.24	-4.298	-71.1	
4.275	-0.26	-3.576	-61.4	
4.28	-0.27	-3.181	-57.1	
4.285	-0.29	-3.066	-78.1	
4.29	-0.3	-2.673	-90.2	
4.295	-0.31	-2.59	-65.2	
4.3	-0.32	-3.074	-46.4	
4.305	-0.34	-3.329	-55.3	
4.31	-0.35	-3.427	-72.2	
4.315	-0.37	-3.918	-68.3	
4.32	-0.39	-4.249	-52.1	
4.325	-0.41	-4.098	-50.5	
4.33	-0.43	-4.143	-37.8	
4.335	-0.45	-4.274	-32.1	
4.34	-0.47	-3.892	-52.4	
4.345	-0.48	-3.488	-48.2	
4.35	-0.5	-3.374	-36.1	
4.355	-0.51	-2.931	-50.2	
4.36	-0.52	-2.323	-62.4	
4.365	-0.53	-2.165	-33.4	
4.37	-0.54	-1.994	-20.7	
4.375	-0.54	-1.502	-55.7	
4.38	-0.55	-1.323	-58.3	
4.385	-0.55	-1.328	-51	
4.39	-0.56	-0.912	-45.9	
4.395	-0.56	-0.596	-19.8	
4.4	-0.56	-0.683	-18.5	
4.405	-0.56	-0.444	-44.9	
4.41	-0.56	0.006	-57.4	
4.415	-0.55	0.022	-35.6	
4.42	-0.55	0.059	-32.4	
4.425	-0.55	0.449	-50.2	
4.43	-0.54	0.584	-35.5	
4.435	-0.54	0.619	-30.8	
4.44	-0.53	1.089	-30.3	
4.445	-0.52	1.379	-20	
4.45	-0.51	1.134	-35.8	
4.455	-0.5	1.025	-36.2	
4.46	-0.5	0.949	-21.5	
4.465	-0.49	0.373	-11.8	
4.47	-0.49	-0.1	-11.7	
4.475	-0.49	-0.127	-39.8	
4.48	-0.49	-0.409	-49.6	
4.485	-0.49	-0.846	-40.1	
4.49	-0.49	-0.884	-38.9	
4.495	-0.49	-1.074	-20.2	
4.5	-0.5	-1.718	-3.6	
4.505	-0.5	-2.092	-22.5	
4.51	-0.51	-2.313	-35.6	
4.515	-0.52	-2.933	-17	
4.52	-0.54	-3.364	-8.4	
4.525	-0.55	-3.327	-22.8	
4.53	-0.57	-3.546	-28.1	
4.535	-0.58	-3.871	-13.9	
4.54	-0.6	-3.708	-17.2	
4.545	-0.61	-3.576	-31	
4.55	-0.63	-3.788	-21.2	
4.555	-0.64	-3.689	-13.1	
4.56	-0.66	-3.449	-13.5	
4.565	-0.67	-3.696	-11.5	
4.57	-0.69	-3.901	-13	
4.575	-0.71	-3.749	-19.8	
4.58	-0.72	-3.888	-37.3	
4.585	-0.74	-4.142	-31.7	
4.59	-0.76	-3.921	-9.6	
4.595	-0.77	-3.784	-21.3	
4.6	-0.79	-4.071	-12.7	
4.605	-0.8	-4.094	-2.5	
4.61	-0.82	-3.964	-16.7	
4.615	-0.84	-4.263	-24	
4.62	-0.85	-4.435	-38.3	
4.625	-0.87	-4.154	-8.8	
4.63	-0.89	-4.132	11	
4.635	-0.91	-4.281	-29	
4.64	-0.92	-3.976	-30.3	
4.645	-0.94	-3.681	-20.7	
4.65	-0.95	-3.704	-22.6	
4.655	-0.96	-3.419	-19.7	
4.66	-0.98	-3.005	-29.3	
4.665	-0.99	-3.072	-33.8	
4.67	-1	-3.138	-23.8	
4.675	-1.01	-2.935	-11.8	
4.68	-1.02	-3.096	-24.2	
4.685	-1.03	-3.424	-18.1	
4.69	-1.04	-3.313	-4.5	
4.695	-1.05	-3.269	-22.9	
4.7	-1.07	-3.577	-24.2	
4.705	-1.08	-3.547	3	
4.71	-1.09	-3.304	-8.3	
4.715	-1.1	-3.423	-37.2	
4.72	-1.12	-3.375	-22.6	
4.725	-1.13	-2.89	-4.1	
4.73	-1.14	-2.711	11	
4.735	-1.14	-2.732	26.9	
4.74	-1.15	-2.366	34.2	
4.745	-1.16	-2.148	27.7	
4.75	-1.16	-2.36	2.1	
4.755	-1.17	-2.313	3.2	
4.76	-1.18	-2.183	22.4	
4.765	-1.18	-2.596	22.7	
4.77	-1.19	-3.004	24.6	
4.775	-1.2	-3.06	17.4	
4.78	-1.21	-3.381	-14.7	
4.785	-1.22	-3.779	-31	
4.79	-1.24	-3.614	-21.3	
4.795	-1.25	-3.387	-29.6	
4.8	-1.26	-3.427	-32.2	
4.805	-1.27	-3.105	-17.7	
4.81	-1.28	-2.596	-21.3	
4.815	-1.28	-2.569	-31.3	
4.82	-1.29	-2.578	-37	
4.825	-1.3	-2.308	-31.1	
4.83	-1.3	-2.446	-34.1	
4.835	-1.31	-2.854	-24.7	
4.84	-1.32	-2.883	-19.6	
4.845	-1.33	-3.007	-43.3	
4.85	-1.34	-3.474	-40.7	
4.855	-1.35	-3.567	-42.4	
4.86	-1.36	-3.406	-46.8	
4.865	-1.37	-3.609	-24.3	
4.87	-1.38	-3.692	9.2	
4.875	-1.4	-3.371	83.1	
4.88	-1.41	-3.35	276.3	
4.885	-1.42	-3.508	543.3	
4.89	-1.43	-3.263	721.3	
4.895	-1.44	-3.156	721.5	
4.9	-1.45	-3.497	592.5	
4.905	-1.46	-3.595	379.4	
4.91	-1.47	-3.546	108	
4.915	-1.48	-3.872	-24.5	
4.92	-1.49	-3.969	-35	
4.925	-1.51	-3.517	-31.1	
4.93	-1.52	-3.243	-3	
4.935	-1.52	-3.115	-40.1	
4.94	-1.53	-2.65	-73.7	
4.945	-1.54	-2.42	-51.9	
4.95	-1.54	-2.712	-57.3	
4.955	-1.55	-2.756	-67.6	
4.96	-1.56	-2.593	-53.8	
4.965	-1.56	-2.827	-45.6	
4.97	-1.57	-3.024	-58.6	
4.975	-1.58	-2.91	-62.6	
4.98	-1.59	-3.118	-60.7	
4.985	-1.59	-3.499	-48.8	
4.99	-1.6	-3.454	-32.4	
4.995	-1.61	-3.475	-49	
5	-1.63	-3.827	-43.7	
5.005	-1.64	-3.81	-20.6	
5.01	-1.65	-3.576	-16.3	
5.015	-1.66	-3.777	-27.6	
5.02	-1.67	-3.903	-39	
5.025	-1.68	-3.636	-32.4	
5.03	-1.69	-3.683	-29.4	
5.035	-1.7	-3.941	-18	
5.04	-1.72	-3.783	2	
5.045	-1.73	-3.651	1.6	
5.05	-1.74	-3.819	-8.3	
5.055	-1.75	-3.618	-0.6	
5.06	-1.76	-3.212	4	
5.065	-1.76	-3.25	-2.8	
5.07	-1.77	-3.271	-0.2	
5.075	-1.78	-2.956	2.6	
5.08	-1.79	-2.937	8.3	
5.085	-1.79	-3.049	21.3	
5.09	-1.8	-2.587	62.2	
5.095	-1.8	-1.919	92.3	
5.1	-1.8	-1.145	67.7	
5.105	-1.79	0.604	80.6	
5.11	-1.78	3.156	92.6	
5.115	-1.75	5.584	78.4	
5.12	-1.71	8.026	115.7	
5.125	-1.65	10.571	138.8	
5.13	-1.59	12.456	150	
5.135	-1.51	13.785	154.6	
5.14	-1.43	15.191	135.8	
5.145	-1.35	16.181	128.5	
5.15	-1.26	16.45	145.6	
5.155	-1.17	16.731	143.5	
5.16	-1.08	16.931	135.5	
5.165	-0.99	16.449	149.8	
5.17	-0.91	15.861	128.8	
5.175	-0.83	15.52	92.3	
5.18	-0.75	14.716	71.6	
5.185	-0.67	13.543	48.5	
5.19	-0.61	12.634	27.5	
5.195	-0.54	11.545	9.2	
5.2	-0.49	10.033	-4.8	
5.205	-0.44	8.815	-21	
5.21	-0.39	7.762	-43.9	
5.215	-0.36	6.196	-54.3	
5.22	-0.33	4.569	-75.4	
5.225	-0.31	3.183	-77.9	
5.23	-0.29	1.362	-58.7	
5.235	-0.29	-0.661	-72.2	
5.24	-0.3	-2.1	-76.2	
5.245	-0.31	-3.354	-72.4	
5.25	-0.33	-4.696	-82.8	
5.255	-0.35	-5.452	-89.9	
5.26	-0.38	-5.751	-88.9	
5.265	-0.41	-6.215	-89.1	
5.27	-0.44	-6.386	-80.2	
5.275	-0.47	-5.995	-33.8	
5.28	-0.49	-5.742	-34.6	
5.285	-0.52	-5.499	-83.2	
5.29	-0.54	-4.679	-88.2	
5.295	-0.56	-3.873	-88.1	
5.3	-0.58	-3.487	-74.1	
5.305	-0.59	-2.88	-50.1	
5.31	-0.6	-2.163	-53.6	
5.315	-0.61	-1.941	-56.1	
5.32	-0.61	-1.74	-47.7	
5.325	-0.62	-1.292	-54.7	
5.33	-0.62	-1.294	-63.3	
5.335	-0.63	-1.639	-43.8	
5.34	-0.63	-1.72	-32.1	
5.345	-0.64	-1.988	-24.3	
5.35	-0.65	-2.683	-32.5	
5.355	-0.66	-3.043	-56.4	
5.36	-0.67	-3.08	-53.6	
5.365	-0.68	-3.357	-24	
5.37	-0.7	-3.383	-8.1	
5.375	-0.71	-2.892	-33.3	
5.38	-0.72	-2.643	-56.9	
5.385	-0.73	-2.561	-37.7	
5.39	-0.74	-2.071	-26.8	
5.395	-0.74	-1.672	-34.9	
5.4	-0.75	-1.659	-27.3	
5.405	-0.75	-1.374	-30.5	
5.41	-0.76	-0.957	-39.9	
5.415	-0.76	-1.013	-35.6	
5.42	-0.76	-1.029	-28.6	
5.425	-0.76	-0.689	-31.1	
5.43	-0.76	-0.675	-10.9	
5.435	-0.76	-0.848	3	
5.44	-0.76	-0.564	-37.4	
5.445	-0.76	-0.316	-51.6	
5.45	-0.76	-0.419	-26.2	
5.455	-0.76	-0.213	-21.8	
5.46	-0.75	0.154	-9.8	
5.465	-0.75	0.052	-8.4	
5.47	-0.74	-0.027	-47.7	
5.475	-0.74	0.254	-56.5	
5.48	-0.74	0.203	-21.3	
5.485	-0.73	-0.103	-6.1	
5.49	-0.73	-0.016	-11.8	
5.495	-0.73	-0.007	0	
5.5	-0.72	-0.424	-18.8	
5.505	-0.72	-0.582	-50.6	
5.51	-0.72	-0.56	-43	
5.515	-0.72	-0.943	-37.7	
5.52	-0.72	-1.231	-27.9	
5.525	-0.73	-1.16	-13.6	
5.53	-0.73	-1.463	-19.8	
5.535	-0.74	-2.042	-33.8	
5.54	-0.74	-2.252	-29.7	
5.545	-0.75	-2.524	-11	
5.55	-0.76	-3.156	-16.4	
5.555	-0.78	-3.447	-39.5	
5.56	-0.79	-3.486	-24	
5.565	-0.8	-3.929	17.2	
5.57	-0.82	-4.306	-3.8	
5.575	-0.84	-4.27	-39.5	
5.58	-0.86	-4.487	-28.1	
5.585	-0.88	-4.839	-19	
5.59	-0.9	-4.68	-17.2	
5.595	-0.92	-4.506	-12.3	
5.6	-0.93	-4.652	-3.3	
5.605	-0.95	-4.463	-13.8	
5.61	-0.97	-4.069	-21.2	
5.615	-0.98	-4.08	-23.8	
5.62	-1	-3.999	-30	
5.625	-1.01	-3.51	-22.1	
5.63	-1.03	-3.307	-28.1	
5.635	-1.04	-3.329	-15	
5.64	-1.05	-2.997	-8.7	
5.645	-1.06	-2.832	-27.3	
5.65	-1.07	-3.151	-14.3	
5.655	-1.08	-3.243	1.4	
5.66	-1.09	-3.173	-13.9	
5.665	-1.1	-3.503	-30.8	
5.67	-1.12	-3.75	-36.3	
5.675	-1.13	-3.604	-17.9	
5.68	-1.14	-3.701	7.4	
5.685	-1.16	-3.901	-1	
5.69	-1.17	-3.578	-15.2	
5.695	-1.18	-3.284	-12.5	
5.7	-1.19	-3.414	-1.9	
5.705	-1.2	-3.239	-6.1	
5.71	-1.21	-2.778	-16.6	
5.715	-1.22	-2.658	-3.9	
5.72	-1.23	-2.462	2.6	
5.725	-1.23	-1.934	-9.1	
5.73	-1.24	-1.829	-14.7	
5.735	-1.24	-2.069	4	
5.74	-1.25	-1.95	4.5	
5.745	-1.25	-1.894	-28.5	
5.75	-1.25	-2.212	-29.9	
5.755	-1.26	-2.217	1.3	
5.76	-1.27	-2.039	27.1	
5.765	-1.27	-2.356	18.8	
5.77	-1.28	-2.672	-10.9	
5.775	-1.28	-2.614	-23.5	
5.78	-1.29	-2.847	-3.4	
5.785	-1.3	-3.239	22.5	
5.79	-1.31	-3.099	0.2	
5.795	-1.32	-2.88	-15	
5.8	-1.33	-2.991	-10.6	
5.805	-1.34	-2.841	-14.5	
5.81	-1.35	-2.535	-8.8	
5.815	-1.35	-2.696	-4.8	
5.82	-1.36	-2.836	6.9	
5.825	-1.37	-2.574	20.4	
5.83	-1.37	-2.585	12.8	
5.835	-1.38	-2.833	11	
5.84	-1.39	-2.67	2.8	
5.845	-1.39	-2.509	-16.4	
5.85	-1.4	-2.671	-2.3	
5.855	-1.41	-2.514	13.9	
5.86	-1.41	-2.186	7.1	
5.865	-1.42	-2.37	12	
5.87	-1.42	-2.601	20.6	
5.875	-1.43	-2.536	12.3	
5.88	-1.44	-2.792	10.1	
5.885	-1.45	-3.183	9.4	
5.89	-1.45	-3.074	17.2	
5.895	-1.46	-2.966	12.8	
5.9	-1.47	-3.221	7.6	
5.905	-1.48	-3.179	26.9	
5.91	-1.49	-2.949	37.6	
5.915	-1.5	-3.178	45.9	
5.92	-1.51	-3.354	72.8	
5.925	-1.52	-3.113	80.8	
5.93	-1.52	-3.156	72.9	
5.935	-1.53	-3.413	58.4	
5.94	-1.54	-3.26	23.7	
5.945	-1.55	-3.133	29.3	
5.95	-1.56	-3.38	38.2	
5.955	-1.57	-3.367	14	
5.96	-1.58	-3.172	2	
5.965	-1.59	-3.416	16.7	
5.97	-1.6	-3.621	20.8	
5.975	-1.61	-3.416	-7.2	
5.98	-1.62	-3.452	-28.3	
5.985	-1.63	-3.636	-27.6	
5.99	-1.64	-3.374	-15.1	
5.995	-1.65	-3.206	-11.6	
6	-1.66	-3.476	-20.2	
6.005	-1.67	-3.474	-24.4	
6.01	-1.68	-3.25	-24.2	
6.015	-1.69	-3.393	-26.7	
6.02	-1.7	-3.454	-27.6	
6.025	-1.71	-3.16	-22	
6.03	-1.71	-3.206	-4.6	
6.035	-1.72	-3.471	-0.7	
6.04	-1.73	-3.302	1.5	
6.045	-1.74	-3.155	26.1	
6.05	-1.75	-3.349	84.5	
6.055	-1.76	-3.206	283.5	
6.06	-1.76	-2.843	562	
6.065	-1.77	-2.937	715.7	
6.07	-1.78	-3.06	736.3	
6.075	-1.78	-2.877	670.5	
6.08	-1.79	-3.011	462.9	
6.085	-1.8	-3.328	161.1	
6.09	-1.8	-3.192	-19.1	
6.095	-1.81	-3.081	-55	
6.1	-1.82	-3.329	-53.9	
6.105	-1.83	-3.271	-34.9	
6.11	-1.84	-2.991	-25.4	
6.115	-1.84	-3.085	-32.5	
6.12	-1.85	-3.083	-41.7	
6.125	-1.86	-2.699	-47.3	
6.13	-1.86	-2.655	-49.2	
6.135	-1.87	-2.904	-57	
6.14	-1.87	-2.83	-49	
6.145	-1.88	-2.859	-58.2	
6.15	-1.88	-3.272	-53.1	
6.155	-1.89	-3.339	-15.5	
6.16	-1.9	-3.1	-16.5	
6.165	-1.91	-3.209	-31.3	
6.17	-1.91	-3.241	-31.5	
6.175	-1.92	-2.916	-23.7	
6.18	-1.93	-2.972	-26	
6.185	-1.93	-3.323	-28.2	
6.19	-1.94	-3.288	-7	
6.195	-1.95	-3.256	-11.7	
6.2	-1.96	-3.521	-34.2	
6.205	-1.96	-3.397	-20.6	
6.21	-1.97	-3.027	-27.8	
6.215	-1.98	-3.112	-38.4	
6.22	-1.98	-3.207	1.1	
6.225	-1.99	-2.982	20.2	
6.23	-2	-3.138	-8.6	
6.235	-2	-3.564	-21.1	
6.24	-2.01	-3.559	8	
6.245	-2.02	-3.502	31.8	
6.25	-2.03	-3.698	16.5	
6.255	-2.04	-3.492	13.9	
6.26	-2.05	-2.994	50.8	
6.265	-2.05	-2.825	63.3	
6.27	-2.06	-2.465	61.3	
6.275	-2.06	-1.498	68	
6.28	-2.05	-0.458	70.9	
6.285	-2.04	0.883	92.8	
6.29	-2.02	3.131	115	
6.295	-1.99	5.612	133	
6.3	-1.95	7.739	122.7	
6.305	-1.89	10.038	106.7	
6.31	-1.83	12.314	126.9	
6.315	-1.76	13.849	149.3	
6.32	-1.68	15.058	158.7	
6.325	-1.59	16.278	143.5	
6.33	-1.5	16.881	122.5	
6.335	-1.41	16.984	120	
6.34	-1.32	17.232	125.7	
6.345	-1.22	17.178	120.4	
6.35	-1.14	16.455	92.2	
6.355	-1.05	15.717	71.5	
6.36	-0.97	14.959	71.4	
6.365	-0.89	13.637	51.8	
6.37	-0.82	12.224	15.2	
6.375	-0.76	11.073	-20.5	
6.38	-0.71	9.573	-34.8	
6.385	-0.66	7.849	-32.9	
6.39	-0.62	6.559	-55.8	
6.395	-0.59	5.24	-55.1	
6.4	-0.56	3.511	-64.7	
6.405	-0.55	2.021	-102.1	
6.41	-0.54	0.734	-95.6	
6.415	-0.54	-0.884	-91.8	
6.42	-0.54	-2.302	-101	
6.425	-0.55	-3.131	-86.8	
6.43	-0.57	-3.999	-83.8	
6.435	-0.59	-4.832	-94	
6.44	-0.61	-5.047	-85.6	
6.445	-0.63	-5.15	-86.1	
6.45	-0.66	-5.534	-83.9	
6.455	-0.68	-5.559	-73.8	
6.46	-0.71	-5.286	-69	
6.465	-0.73	-5.312	-74.6	
6.47	-0.75	-5.133	-91.1	
6.475	-0.77	-4.451	-77	
6.48	-0.79	-4.056	-57	
6.485	-0.81	-3.909	-69.8	
6.49	-0.82	-3.37	-65	
6.495	-0.83	-2.962	-49.8	
6.5	-0.84	-3.069	-72.2	
6.505	-0.86	-2.98	-63.6	
6.51	-0.87	-2.744	-41.4	
6.515	-0.88	-2.964	-52.9	
6.52	-0.89	-3.175	-73.6	
6.525	-0.9	-2.989	-60.3	
6.53	-0.91	-3.029	-40.8	
6.535	-0.92	-3.238	-51.4	
6.54	-0.93	-2.973	-51.9	
6.545	-0.94	-2.672	-39.1	
6.55	-0.95	-2.706	-29.9	
6.555	-0.96	-2.423	-34.3	
6.56	-0.97	-1.883	-40.3	
6.565	-0.97	-1.716	-40.2	
6.57	-0.97	-1.533	-37	
6.575	-0.98	-1.046	-41.6	
6.58	-0.98	-0.922	-32.1	
6.585	-0.98	-1.048	-24.6	
6.59	-0.98	-0.719	-33.1	
6.595	-0.97	-0.353	-31	
6.6	-0.97	-0.342	-45.4	
6.605	-0.97	-0.086	-37.8	
6.61	-0.96	0.347	-30.7	
6.615	-0.96	0.391	-57.2	
6.62	-0.95	0.522	-58.1	
6.625	-0.94	1.08	-57.7	
6.63	-0.93	1.366	-54.5	
6.635	-0.92	1.381	-41.7	
6.64	-0.91	1.716	-30.5	
6.645	-0.9	1.899	-7	
6.65	-0.88	1.616	-22.9	
6.655	-0.87	1.581	-59.8	
6.66	-0.86	1.71	-49.9	
6.665	-0.85	1.339	-52.5	
6.67	-0.84	0.883	-67.6	
6.675	-0.83	0.685	-52.5	
6.68	-0.82	0.098	-51.6	
6.685	-0.82	-0.791	-44	
6.69	-0.82	-1.262	-36	
6.695	-0.83	-1.677	-45.9	
6.7	-0.83	-2.334	-42.3	
6.705	-0.84	-2.543	-44.7	
6.71	-0.85	-2.433	-52.2	
6.715	-0.86	-2.672	-44.5	
6.72	-0.87	-2.824	-44.5	
6.725	-0.88	-2.601	-55.3	
6.73	-0.89	-2.713	-49.8	
6.735	-0.9	-3.071	-40.2	
6.74	-0.91	-3.021	-37	
6.745	-0.92	-3.033	-34.2	
6.75	-0.93	-3.437	-33.8	
6.755	-0.95	-3.541	-45.2	
6.76	-0.96	-3.421	-45.7	
6.765	-0.97	-3.689	-44.6	
6.77	-0.99	-3.864	-33.3	
6.775	-1	-3.611	-8.3	
6.78	-1.01	-3.633	-26.7	
6.785	-1.03	-3.888	-63.8	
6.79	-1.04	-3.746	-57.3	
6.795	-1.06	-3.624	-38	
6.8	-1.07	-3.844	-38.1	
6.805	-1.08	-3.744	-35.2	
6.81	-1.1	-3.399	-42.6	
6.815	-1.11	-3.472	-34.8	
6.82	-1.12	-3.536	-22.3	
6.825	-1.13	-3.245	-40.3	
6.83	-1.14	-3.247	-31.5	
6.835	-1.16	-3.474	-14.2	
6.84	-1.17	-3.312	-20.5	
6.845	-1.18	-3.229	-29	
6.85	-1.19	-3.549	-28.8	
6.855	-1.2	-3.522	-24	
6.86	-1.21	-3.169	-13.9	
6.865	-1.22	-3.114	-7.8	
6.87	-1.23	-2.942	-31.3	
6.875	-1.24	-2.393	-34.8	
6.88	-1.25	-2.198	-30.8	
6.885	-1.25	-2.295	-34.3	
6.89	-1.26	-2.041	-14.3	
6.895	-1.26	-1.889	-17.3	
6.9	-1.27	-2.174	-31.1	
6.905	-1.27	-2.158	-29.8	
6.91	-1.28	-1.877	-40.5	
6.915	-1.28	-2.007	-33.2	
6.92	-1.28	-2.116	-15.3	
6.925	-1.29	-1.867	-23.5	
6.93	-1.29	-1.948	-3.2	
6.935	-1.29	-2.304	4.1	
6.94	-1.3	-2.291	-32.9	
6.945	-1.31	-2.294	-27.8	
6.95	-1.31	-2.608	-20.3	
6.955	-1.32	-2.549	-31.1	
6.96	-1.33	-2.225	-23.5	
6.965	-1.33	-2.346	-12.1	
6.97	-1.34	-2.498	-1.3	
6.975	-1.34	-2.319	-10.8	
6.98	-1.35	-2.4	-25.3	
6.985	-1.35	-2.606	-9	
6.99	-1.36	-2.322	-11.3	
6.995	-1.37	-2.055	-19.5	
7	-1.37	-2.204	5.1	
7.005	-1.38	-2.152	-9.2	
7.01	-1.38	-1.934	-22.9	
7.015	-1.38	-2.104	1.1	
7.02	-1.39	-2.224	16.5	
7.025	-1.39	-1.969	33.6	
7.03	-1.39	-2.021	49.1	
7.035	-1.4	-2.356	43.4	
7.04	-1.4	-2.332	35.8	
7.045	-1.41	-2.33	56.5	
7.05	-1.42	-2.671	45.1	
7.055	-1.42	-2.696	25.5	
7.06	-1.43	-2.486	25.3	
7.065	-1.44	-2.708	9	
7.07	-1.44	-2.902	5.4	
7.075	-1.45	-2.654	-6.3	
7.08	-1.46	-2.613	-11	
7.085	-1.46	-2.758	-9.3	
7.09	-1.47	-2.522	-6.7	
7.095	-1.48	-2.408	0.3	
7.1	-1.48	-2.766	-8.3	
7.105	-1.49	-2.871	-15.6	
7.11	-1.5	-2.712	-33.6	
7.115	-1.5	-2.914	-26.4	
7.12	-1.51	-3.089	-18	
7.125	-1.52	-2.916	-36.2	
7.13	-1.53	-3.015	-29.7	
7.135	-1.54	-3.293	-14.8	
7.14	-1.54	-3.088	-8.2	
7.145	-1.55	-2.819	-6	
7.15	-1.56	-2.878	-13.6	
7.155	-1.57	-2.664	-20.1	
7.16	-1.57	-2.284	-12.7	
7.165	-1.58	-2.424	53.3	
7.17	-1.58	-2.626	205.6	
7.175	-1.59	-2.477	434.9	
7.18	-1.59	-2.63	642.2	
7.185	-1.6	-3.003	695.1	
7.19	-1.61	-2.909	625.2	
7.195	-1.61	-2.788	425	
7.2	-1.62	-3.026	132.3	
7.205	-1.63	-2.994	-45.4	
7.21	-1.64	-2.747	-81.2	
7.215	-1.64	-2.891	-58.8	
7.22	-1.65	-2.994	-27.8	
7.225	-1.66	-2.706	-31	
7.23	-1.66	-2.663	-40.1	
7.235	-1.67	-2.823	-40.2	
7.24	-1.67	-2.59	-48.2	
7.245	-1.68	-2.407	-53	
7.25	-1.68	-2.616	-52.8	
7.255	-1.69	-2.527	-32.9	
7.26	-1.69	-2.198	-41.1	
7.265	-1.7	-2.321	-49	
7.27	-1.7	-2.509	-17.1	
7.275	-1.7	-2.373	-33	
7.28	-1.71	-2.517	-46.4	
7.285	-1.71	-2.879	-23.9	
7.29	-1.72	-2.79	5.1	
7.295	-1.73	-2.661	6.3	
7.3	-1.73	-2.9	-22.9	
7.305	-1.74	-2.857	-22.5	
7.31	-1.75	-2.539	-28	
7.315	-1.75	-2.581	-32.4	
7.32	-1.75	-2.557	-12.1	
7.325	-1.76	-2.111	3.8	
7.33	-1.76	-1.963	1.3	
7.335	-1.76	-2.127	-0.1	
7.34	-1.76	-2.002	16.3	
7.345	-1.77	-2.023	23	
7.35	-1.77	-2.499	35.6	
7.355	-1.77	-2.699	48.7	
7.36	-1.78	-2.616	40.7	
7.365	-1.79	-2.877	47.3	
7.37	-1.79	-3.079	66.7	
7.375	-1.8	-2.864	69.3	
7.38	-1.8	-2.868	63.3	
7.385	-1.81	-3.002	71.7	
7.39	-1.82	-2.613	81.2	
7.395	-1.82	-2.119	94	
7.4	-1.82	-1.857	114.1	
7.405	-1.82	-1.077	125.1	
7.41	-1.81	0.346	139.1	
7.415	-1.8	1.872	147.3	
7.42	-1.78	3.832	156.4	
7.425	-1.75	6.353	185.5	
7.43	-1.7	8.565	186.7	
7.435	-1.65	10.36	165.7	
7.44	-1.58	12.264	175.1	
7.445	-1.51	13.816	195.6	
7.45	-1.43	14.675	186.9	
7.455	-1.35	15.504	155.6	
7.46	-1.26	16.258	134.3	
7.465	-1.18	16.323	113.5	
7.47	-1.09	16.143	105.4	
7.475	-1	16.098	101.6	
7.48	-0.92	15.532	61	
7.485	-0.84	14.467	33.1	
7.49	-0.77	13.576	11.6	
7.495	-0.7	12.523	-17.5	
7.5	-0.64	10.931	-34.5	
7.505	-0.58	9.476	-51.8	
7.51	-0.54	8.221	-53.2	
7.515	-0.5	6.576	-65.3	
7.52	-0.47	5.001	-74.6	
7.525	-0.44	3.894	-70.1	
7.53	-0.42	2.61	-75	
7.535	-0.41	1.159	-68.2	
7.54	-0.41	0.142	-45.6	
7.545	-0.41	-0.849	-67.5	
7.55	-0.41	-2.104	-96.5	
7.555	-0.42	-2.912	-68.8	
7.56	-0.44	-3.316	-54.8	
7.565	-0.45	-3.964	-72.2	
7.57	-0.47	-4.431	-78.6	
7.575	-0.49	-4.36	-80.4	
7.58	-0.51	-4.416	-72.9	
7.585	-0.53	-4.569	-57.6	
7.59	-0.55	-4.229	-55.8	
7.595	-0.57	-3.901	-52.4	
7.6	-0.59	-4.036	-53.9	
7.605	-0.6	-4.001	-42.2	
7.61	-0.62	-3.809	-30.6	
7.615	-0.64	-4.079	-39.4	
7.62	-0.66	-4.331	-25.8	
7.625	-0.67	-4.124	-18.9	
7.63	-0.69	-4.096	-44	
7.635	-0.71	-4.269	-55.6	
7.64	-0.73	-4.056	-48.6	
7.645	-0.74	-3.867	-41	
7.65	-0.76	-4.069	-25.9	
7.655	-0.78	-4.007	-12.4	
7.66	-0.79	-3.684	-17.1	
7.665	-0.81	-3.748	-38.9	
7.67	-0.82	-3.803	-46.5	
7.675	-0.84	-3.481	-35.1	
7.68	-0.85	-3.415	-39.3	
7.685	-0.86	-3.519	-42	
7.69	-0.88	-3.077	-37.6	
7.695	-0.89	-2.473	-44.2	
7.7	-0.89	-2.124	-37	
7.705	-0.9	-1.435	-28.4	
7.71	-0.9	-0.484	-39	
7.715	-0.9	0.035	-42.7	
7.72	-0.89	0.532	-33.9	
7.725	-0.88	1.418	-25	
7.73	-0.87	2.041	-15.1	
7.735	-0.85	2.375	-22.9	
7.74	-0.84	3.043	-51.5	
7.745	-0.82	3.641	-63	
7.75	-0.79	3.756	-53.6	
7.755	-0.77	4.035	-35.7	
7.76	-0.75	4.475	-26.8	
7.765	-0.72	4.416	-26.3	
7.77	-0.69	4.268	-25.9	
7.775	-0.67	4.383	-14.8	
7.78	-0.65	4.083	-31.4	
7.785	-0.62	3.434	-62.2	
7.79	-0.6	3.099	-31.3	
7.795	-0.59	2.643	-28.8	
7.8	-0.57	1.734	-45.1	
7.805	-0.56	1.091	-29.3	
7.81	-0.56	0.691	-24.9	
7.815	-0.55	-0.092	-16.9	
7.82	-0.55	-0.807	-12.6	
7.825	-0.56	-1.076	-44.8	
7.83	-0.56	-1.534	-56	
7.835	-0.57	-2.106	-39.2	
7.84	-0.57	-2.149	-43.1	
7.845	-0.58	-2.103	-43.6	
7.85	-0.59	-2.375	-15.5	
7.855	-0.6	-2.379	-5.1	
7.86	-0.61	-2.194	-26.6	
7.865	-0.62	-2.461	-18.8	
7.87	-0.63	-2.736	-20.9	
7.875	-0.64	-2.644	-53.6	
7.88	-0.65	-2.835	-57.9	
7.885	-0.66	-3.244	-10.7	
7.89	-0.67	-3.215	2.6	
7.895	-0.69	-3.161	-20.3	
7.9	-0.7	-3.441	5.3	
7.905	-0.71	-3.398	20.5	
7.91	-0.73	-3.106	10.3	
7.915	-0.74	-3.281	-6.7	
7.92	-0.75	-3.518	-1.9	
7.925	-0.77	-3.408	36.9	
7.93	-0.78	-3.566	42.8	
7.935	-0.8	-3.891	23.7	
7.94	-0.81	-3.676	4.5	
7.945	-0.83	-3.359	-15.2	
7.95	-0.84	-3.39	-19.8	
7.955	-0.85	-3.174	-25	
7.96	-0.86	-2.776	-47.3	
7.965	-0.87	-2.833	-30.8	
7.97	-0.88	-2.912	-4.1	
7.975	-0.89	-2.619	-23.2	
7.98	-0.9	-2.607	-24.6	
7.985	-0.91	-2.864	-28.2	
7.99	-0.92	-2.745	-47.5	
7.995	-0.93	-2.666	-57.1	
8	-0.94	-2.959	-43.4	
8.005	-0.95	-2.905	-15.7	
8.01	-0.96	-2.512	-32.5	
8.015	-0.97	-2.458	-40.6	
8.02	-0.97	-2.363	-24.8	
8.025	-0.98	-1.908	-27.3	
8.03	-0.98	-1.803	-34	
8.035	-0.99	-1.997	-33.2	
8.04	-1	-1.791	-38.4	
8.045	-1	-1.593	-12.9	
8.05	-1	-1.802	56.2	
8.055	-1.01	-1.754	156.4	
8.06	-1.01	-1.471	344.2	
8.065	-1.01	-1.613	535.1	
8.07	-1.02	-1.754	592.1	
8.075	-1.02	-1.492	527.5	
8.08	-1.02	-1.473	343.7	
8.085	-1.03	-1.696	53.5	
8.09	-1.03	-1.541	-97.2	
8.095	-1.03	-1.401	-62.6	
8.1	-1.04	-1.625	-21.7	
8.105	-1.04	-1.559	-14.9	
8.11	-1.04	-1.216	-18.8	
8.115	-1.04	-1.232	-9.6	
8.12	-1.04	-1.241	-24.6	
8.125	-1.04	-0.912	-41.5	
8.13	-1.04	-0.938	-38.2	
8.135	-1.04	-1.286	-40.1	
8.14	-1.05	-1.293	-37.8	
8.145	-1.05	-1.379	-32.7	
8.15	-1.05	-1.886	-22	
8.155	-1.06	-2.064	-16.8	
8.16	-1.06	-1.848	-21.8	
8.165	-1.07	-1.859	-16.2	
8.17	-1.07	-1.816	-4.1	
8.175	-1.07	-1.512	6	
8.18	-1.08	-1.624	9.9	
8.185	-1.08	-2.068	-5.8	
8.19	-1.09	-2.107	-17.4	
8.195	-1.09	-2.061	-12.8	
8.2	-1.1	-2.297	-10.4	
8.205	-1.1	-2.211	8.2	
8.21	-1.11	-1.861	29.7	
8.215	-1.11	-1.936	9.5	
8.22	-1.12	-2.058	4.3	
8.225	-1.12	-1.854	19.3	
8.23	-1.13	-2.002	7.4	
8.235	-1.13	-2.479	9.6	
8.24	-1.14	-2.558	19.9	
8.245	-1.15	-2.586	45.9	
8.25	-1.16	-2.922	60.4	
8.255	-1.17	-2.913	56.3	
8.26	-1.18	-2.619	74.8	
8.265	-1.18	-2.699	88.4	
8.27	-1.19	-2.741	93.8	
8.275	-1.2	-2.397	98.7	
8.28	-1.2	-2.337	111.1	
8.285	-1.21	-2.531	130.3	
8.29	-1.22	-2.29	148.3	
8.295	-1.22	-1.947	155.7	
8.3	-1.23	-1.803	187.7	
8.305	-1.23	-1.057	234.5	
8.31	-1.23	0.42	233.8	
8.315	-1.21	1.925	204.3	
8.32	-1.19	3.666	188.1	
8.325	-1.17	5.85	194.1	
8.33	-1.13	7.692	215.1	
8.335	-1.08	9.143	222.1	
8.34	-1.02	10.84	186.8	
8.345	-0.96	12.366	165.3	
8.35	-0.89	13.294	137.3	
8.355	-0.82	14.204	101.8	
8.36	-0.74	15.036	80.5	
8.365	-0.66	15.171	30.3	
8.37	-0.58	15.029	1.3	
8.375	-0.51	14.992	-5.4	
8.38	-0.43	14.427	-21.4	
8.385	-0.36	13.363	-40.5	
8.39	-0.29	12.514	-55.8	
8.395	-0.23	11.559	-57.9	
8.4	-0.18	10.104	-63.2	
8.405	-0.13	8.801	-72.2	
8.41	-0.09	7.651	-75.8	
8.415	-0.05	6.031	-92.7	
8.42	-0.03	4.441	-106.1	
8.425	-0.01	3.331	-83.7	
8.43	0.01	2.056	-89.2	
8.435	0.01	0.656	-91	
8.44	0.01	-0.214	-56	
8.445	0.01	-0.965	-77.6	
8.45	0	-2.009	-103.7	
8.455	-0.01	-2.659	-94.9	
8.46	-0.02	-2.843	-88.7	
8.465	-0.04	-3.201	-85.2	
8.47	-0.05	-3.355	-85.7	
8.475	-0.07	-3.004	-79.2	
8.48	-0.08	-2.999	-67.3	
8.485	-0.1	-3.42	-61.6	
8.49	-0.12	-3.583	-54.5	
8.495	-0.13	-3.828	-47.7	
8.5	-0.15	-4.395	-45.5	
8.505	-0.18	-4.542	-36.1	
8.51	-0.2	-4.31	-41.9	
8.515	-0.22	-4.404	-62.8	
8.52	-0.24	-4.501	-65.7	
8.525	-0.26	-4.276	-67.2	
8.53	-0.28	-4.395	-61.3	
8.535	-0.3	-4.798	-51	
8.54	-0.33	-4.744	-51.9	
8.545	-0.35	-4.624	-46.4	
8.55	-0.37	-4.871	-51.2	
8.555	-0.39	-4.831	-60.7	
8.56	-0.41	-4.519	-60.3	
8.565	-0.43	-4.568	-43.2	
8.57	-0.45	-4.509	-13.1	
8.575	-0.47	-3.935	-36.1	
8.58	-0.49	-3.494	-79.8	
8.585	-0.51	-3.206	-65.6	
8.59	-0.52	-2.468	-46.1	
8.595	-0.52	-1.684	-58.3	
8.6	-0.53	-1.268	-60.1	
8.605	-0.53	-0.552	-40.7	
8.61	-0.53	0.48	-46.8	
8.615	-0.52	1.125	-57.3	
8.62	-0.51	1.742	-46.2	
8.625	-0.5	2.696	-56.9	
8.63	-0.48	3.315	-66.9	
8.635	-0.46	3.576	-47.5	
8.64	-0.44	4.123	-32.8	
8.645	-0.42	4.563	-36.8	
8.65	-0.39	4.449	-45.2	
8.655	-0.37	4.44	-45.1	
8.66	-0.35	4.589	-33.1	
8.665	-0.32	4.231	-32.6	
8.67	-0.3	3.747	-19.1	
8.675	-0.28	3.519	10.6	
8.68	-0.26	2.889	16.6	
8.685	-0.25	1.965	32.3	
8.69	-0.24	1.499	22.9	
8.695	-0.23	1.11	-16.2	
8.7	-0.23	0.419	-11.1	
8.705	-0.23	0.054	-11.7	
8.71	-0.22	-0.026	-12.8	
8.715	-0.23	-0.506	-2	
8.72	-0.23	-0.986	-40.4	
8.725	-0.23	-1.04	-66.3	
8.73	-0.24	-1.306	-70.4	
8.735	-0.24	-1.748	-60.2	
8.74	-0.25	-1.725	-40.8	
8.745	-0.26	-1.678	-48.7	
8.75	-0.27	-2.021	-68	
8.755	-0.28	-2.169	-72.9	
8.76	-0.29	-2.159	-46.1	
8.765	-0.29	-2.617	-31.3	
8.77	-0.31	-3.098	-42.7	
8.775	-0.32	-3.134	-56.3	
8.78	-0.34	-3.393	-61.2	
8.785	-0.35	-3.931	-62.6	
8.79	-0.37	-4.096	-58.7	
8.795	-0.39	-4.218	-39.4	
8.8	-0.41	-4.6	-34	
8.805	-0.43	-4.581	-38.9	
8.81	-0.45	-4.196	-52.1	
8.815	-0.47	-4.155	-15.7	
8.82	-0.49	-4.125	117.3	
8.825	-0.51	-3.712	297.7	
8.83	-0.52	-3.565	509.2	
8.835	-0.54	-3.692	601	
8.84	-0.55	-3.433	530.6	
8.845	-0.57	-3.203	388.1	
8.85	-0.58	-3.436	147	
8.855	-0.6	-3.508	-60.8	
8.86	-0.61	-3.376	-100.5	
8.865	-0.63	-3.622	-58.7	
8.87	-0.64	-3.783	-45.2	
8.875	-0.66	-3.413	-67.4	
8.88	-0.67	-3.228	-52.9	
8.885	-0.68	-3.292	-42.1	
8.89	-0.7	-2.942	-85.9	
8.895	-0.71	-2.596	-82.6	
8.9	-0.72	-2.674	-43.9	
8.905	-0.73	-2.534	-46	
8.91	-0.73	-2.159	-61	
8.915	-0.74	-2.192	-60.7	
8.92	-0.75	-2.238	-40.9	
8.925	-0.76	-1.877	-17.3	
8.93	-0.76	-1.776	-28.3	
8.935	-0.77	-1.933	-42.6	
8.94	-0.77	-1.663	-34.1	
8.945	-0.78	-1.416	-19.3	
8.95	-0.78	-1.643	-20.8	
8.955	-0.79	-1.715	-28.3	
8.96	-0.79	-1.588	-14.1	
8.965	-0.8	-1.824	-23.4	
8.97	-0.8	-2.015	-21.2	
8.975	-0.81	-1.772	-3.4	
8.98	-0.81	-1.801	3.3	
8.985	-0.82	-2.164	9.4	
8.99	-0.83	-2.203	-3.3	
8.995	-0.83	-2.297	14.9	
9	-0.84	-2.794	14.3	
9.005	-0.85	-2.994	-3.9	
9.01	-0.86	-2.86	17.4	
9.015	-0.87	-3.016	28.4	
9.02	-0.89	-3.087	41.9	
9.025	-0.9	-2.668	50.8	
9.03	-0.91	-2.433	46.8	
9.035	-0.91	-2.424	68.8	
9.04	-0.92	-1.975	83.4	
9.045	-0.92	-1.496	89.3	
9.05	-0.93	-1.413	108.6	
9.055	-0.93	-1.033	117.4	
9.06	-0.93	-0.216	138.7	
9.065	-0.92	0.521	158.4	
9.07	-0.91	1.634	160.2	
9.075	-0.9	3.511	169.1	
9.08	-0.87	5.348	197.4	
9.085	-0.84	6.951	211	
9.09	-0.79	8.866	190.3	
9.095	-0.74	10.634	188.2	
9.1	-0.68	11.788	186.7	
9.105	-0.62	12.926	162	
9.11	-0.55	14.079	157.8	
9.115	-0.47	14.599	131.5	
9.12	-0.4	14.824	93.2	
9.125	-0.32	15.193	75.6	
9.13	-0.24	15.074	32.3	
9.135	-0.17	14.468	-5.6	
9.14	-0.09	14.093	-21.4	
9.145	-0.03	13.564	-44.8	
9.15	0.04	12.479	-61.9	
9.155	0.1	11.467	-73.3	
9.16	0.15	10.53	-69.9	
9.165	0.2	9.061	-67.1	
9.17	0.24	7.49	-88.2	
9.175	0.28	6.343	-91.3	
9.18	0.3	5.026	-80.1	
9.185	0.32	3.502	-82.7	
9.19	0.34	2.393	-94.8	
9.195	0.34	1.271	-103.3	
9.2	0.34	-0.209	-104.8	
9.205	0.34	-1.317	-92.5	
9.21	0.33	-1.951	-90.8	
9.215	0.32	-2.719	-83.8	
9.22	0.3	-3.326	-72.1	
9.225	0.28	-3.415	-84.1	
9.23	0.26	-3.654	-86.3	
9.235	0.24	-4.053	-88.6	
9.24	0.22	-3.961	-77.2	
9.245	0.2	-3.787	-73.3	
9.25	0.18	-3.923	-92.3	
9.255	0.16	-3.796	-89.5	
9.26	0.14	-3.433	-72	
9.265	0.12	-3.513	-69.6	
9.27	0.1	-3.698	-90.4	
9.275	0.09	-3.532	-69.6	
9.28	0.07	-3.65	-33.1	
9.285	0.05	-4.055	-43.8	
9.29	0.03	-4.081	-74.4	
9.295	0.01	-4.141	-79.1	
9.3	-0.01	-4.647	-65.7	
9.305	-0.04	-4.9	-56.6	
9.31	-0.06	-4.746	-38.8	
9.315	-0.09	-4.814	-47.3	
9.32	-0.11	-4.776	-65.3	
9.325	-0.13	-4.227	-53.6	
9.33	-0.15	-3.888	-47.2	
9.335	-0.17	-3.828	-54.7	
9.34	-0.19	-3.383	-74.6	
9.345	-0.2	-2.902	-77.4	
9.35	-0.22	-2.771	-44.8	
9.355	-0.23	-2.366	-49.9	
9.36	-0.24	-1.679	-73.5	
9.365	-0.24	-1.391	-55.5	
9.37	-0.25	-1.107	-39	
9.375	-0.25	-0.379	-62.6	
9.38	-0.25	0.138	-75.7	
9.385	-0.25	0.392	-66.3	
9.39	-0.24	1.018	-52.4	
9.395	-0.23	1.619	-47.4	
9.4	-0.23	1.728	-56.8	
9.405	-0.22	1.963	-41.5	
9.41	-0.2	2.359	-47.9	
9.415	-0.19	2.293	-62.3	
9.42	-0.18	2.204	-43.6	
9.425	-0.17	2.502	-30.8	
9.43	-0.15	2.496	-43.8	
9.435	-0.14	2.101	-58.2	
9.44	-0.13	1.933	-53.2	
9.445	-0.12	1.639	-46.8	
9.45	-0.11	0.817	-35.5	
9.455	-0.11	0.173	-9.8	
9.46	-0.11	-0.174	16.8	
9.465	-0.11	-0.849	12.8	
9.47	-0.12	-1.496	-0.6	
9.475	-0.13	-1.711	-8.4	
9.48	-0.13	-2.111	-8	
9.485	-0.14	-2.708	14.4	
9.49	-0.16	-2.832	5.7	
9.495	-0.17	-2.875	-24.9	
9.5	-0.19	-3.295	-36.8	
9.505	-0.2	-3.462	-33	
9.51	-0.22	-3.337	-30.4	
9.515	-0.24	-3.593	-54.3	
9.52	-0.25	-3.92	-68.4	
9.525	-0.27	-3.891	-52.4	
9.53	-0.29	-4.079	-45.8	
9.535	-0.31	-4.485	-62.5	
9.54	-0.33	-4.422	-64.2	
9.545	-0.35	-4.262	-42.6	
9.55	-0.37	-4.471	-46.9	
9.555	-0.39	-4.419	-71.5	
9.56	-0.41	-4.084	-76.1	
9.565	-0.43	-4.171	-59.7	
9.57	-0.45	-4.299	-45.2	
9.575	-0.47	-4.063	-47.9	
9.58	-0.49	-4.154	-50.1	
9.585	-0.51	-4.589	-51	
9.59	-0.53	-4.629	-66	
9.595	-0.55	-4.601	-62.9	
9.6	-0.57	-4.925	-13.4	
9.605	-0.59	-4.913	111.2	
9.61	-0.61	-4.541	320.6	
9.615	-0.63	-4.536	560.6	
9.62	-0.65	-4.549	690.7	
9.625	-0.67	-4.164	649.9	
9.63	-0.69	-3.993	513.7	
9.635	-0.7	-4.039	261.4	
9.64	-0.72	-3.644	-8.2	
9.645	-0.73	-3.251	-93.2	
9.65	-0.75	-3.343	-78.6	
9.655	-0.76	-3.286	-51.4	
9.66	-0.77	-3.038	-33.8	
9.665	-0.78	-3.145	-63.8	
9.67	-0.8	-3.151	-79.4	
9.675	-0.81	-2.669	-84	
9.68	-0.82	-2.409	-70.7	
9.685	-0.82	-2.505	-47.4	
9.69	-0.83	-2.353	-65	
9.695	-0.84	-2.296	-83.3	
9.7	-0.85	-2.702	-85.1	
9.705	-0.86	-2.857	-69.9	
9.71	-0.87	-2.677	-21.6	
9.715	-0.88	-2.827	-8	
9.72	-0.89	-2.964	-64.9	
9.725	-0.9	-2.679	-103.8	
9.73	-0.91	-2.674	-76.3	
9.735	-0.92	-3.056	-36.6	
9.74	-0.93	-3.126	-47.7	
9.745	-0.94	-3.141	-49.9	
9.75	-0.95	-3.468	-24.2	
9.755	-0.97	-3.466	-39.8	
9.76	-0.98	-3.123	-40.8	
9.765	-0.99	-3.168	-9.8	
9.77	-1	-3.319	2.8	
9.775	-1.01	-3.161	-16.3	
9.78	-1.02	-3.323	-38.8	
9.785	-1.04	-3.802	-27.7	
9.79	-1.05	-3.819	-9.8	
9.795	-1.07	-3.698	5	
9.8	-1.08	-3.898	18.1	
9.805	-1.09	-3.784	3.9	
9.81	-1.11	-3.329	16.7	
9.815	-1.12	-3.224	44.6	
9.82	-1.13	-3.096	49.6	
9.825	-1.14	-2.446	62.4	
9.83	-1.14	-1.816	57	
9.835	-1.15	-1.114	63.5	
9.84	-1.14	0.405	89.2	
9.845	-1.13	2.33	106.2	
9.85	-1.11	4.083	131	
9.855	-1.08	6.128	136.7	
9.86	-1.04	8.366	143.3	
9.865	-0.99	9.991	164.7	
9.87	-0.93	11.334	173.5	
9.875	-0.86	12.824	168.8	
9.88	-0.79	13.79	149.2	
9.885	-0.72	14.247	144	
9.89	-0.64	14.927	145	
9.895	-0.57	15.486	128.8	
9.9	-0.48	15.43	110.2	
9.905	-0.41	15.309	83.7	
9.91	-0.33	15.174	60.7	
9.915	-0.25	14.396	47.2	
9.92	-0.18	13.37	14.4	
9.925	-0.12	12.523	-28.5	
9.93	-0.06	11.253	-49.1	
9.935	-0.01	9.583	-45	
9.94	0.04	8.229	-42.9	
9.945	0.08	6.895	-53.8	
9.95	0.11	5.133	-75.6	
9.955	0.13	3.601	-116.3	
9.96	0.14	2.411	-122.3	
9.965	0.15	0.891	-101.8	
9.97	0.15	-0.558	-98.8	
9.975	0.14	-1.468	-88.7	
9.98	0.13	-2.478	-74.3	
9.985	0.12	-3.64	-74	
9.99	0.1	-4.244	-82	
9.995	0.07	-4.612	-84.6	
10	0.05	-5.258	-75.5	
10.005	0	1.613	36.3	
10.01	0.03	9.383	150	
10.015	0.1	17.583	180.5	
10.02	0.19	20.387	140.1	
10.025	0.29	NaN	134	
10.03	0.39	NaN	127.3	
10.035	0.5	NaN	100.1	
10.04	0.59	NaN	126.7	
10.045	0.69	NaN	133.5	
10.05	0.79	20.479	90	
10.055	0.89	NaN	100	
10.06	0.99	20.475	105.4	
10.065	1.09	NaN	96.5	
10.07	1.19	20.471	112.7	
10.075	1.28	NaN	94.9	
10.08	1.38	20.096	86	
10.085	1.47	17.723	117.4	
10.09	1.54	14.126	131.9	
10.095	1.59	11.046	104	
10.1	1.64	8.194	64.1	
10.105	1.66	5.48	85.7	
10.11	1.68	3.207	101.6	
10.115	1.68	0.664	93.4	
10.12	1.67	-2.598	119	
10.125	1.64	-5.442	122.6	
10.13	1.6	-7.006	92.9	
10.135	1.55	-7.834	56.8	
10.14	1.51	-8.306	34.8	
10.145	1.46	-8.766	39.7	
10.15	1.4	-9.942	50.8	
10.155	1.34	-11.499	46.2	
10.16	1.28	-12.841	52.6	
10.165	1.2	-14.459	66.5	
10.17	1.12	-16.306	69.8	
10.175	1.03	-17.496	71.6	
10.18	0.94	-18.004	43.5	
10.185	0.84	-18.035	40.6	
10.19	0.75	-17.325	82.8	
10.195	0.66	-16.377	97.6	
10.2	0.58	-16.138	50.9	
10.205	0.5	-16.479	8.5	
10.21	0.41	-16.77	25.2	
10.215	0.32	-17.139	13.6	
10.22	0.24	-17.594	33.3	
10.225	0.15	-17.851	177.8	
10.23	0.06	-18.145	355.4	
10.235	-0.04	-18.243	481.1	
10.24	-0.12	-17.376	518.9	
10.245	-0.21	-15.902	450.5	
10.25	-0.28	-14.992	251.3	
10.255	-0.35	-14.835	43.8	
10.26	-0.43	-14.891	-0.7	
10.265	-0.5	-14.955	25	
10.27	-0.57	-14.664	13.6	
10.275	-0.64	-13.584	51.4	
10.28	-0.7	-12.509	89.1	
10.285	-0.76	-12.083	65	
10.29	-0.82	-11.306	81.6	
10.295	-0.86	-9.661	104.4	
10.3	-0.9	-8.005	100.8	
10.305	-0.94	-6.581	93.7	
10.31	-0.96	-5.128	79.6	
10.315	-0.98	-4.242	105.9	
10.32	-1	-3.996	126.9	
10.325	-1.01	-3.563	102.5	
10.33	-1.02	-3.163	109.9	
10.335	-1.03	-3.324	151.6	
10.34	-1.04	-3.436	180.2	
10.345	-1.06	-3.214	171	
10.35	-1.07	-3.357	152.3	
10.355	-1.08	-3.536	199.3	
10.36	-1.09	-2.806	251.2	
10.365	-1.1	-1.69	247	
10.37	-1.1	-0.873	247	
10.375	-1.1	-0.405	289.7	
10.38	-1.1	-1.011	314.4	
10.385	-1.1	-2.866	316.3	
10.39	-1.11	-4.298	326.4	
10.395	-1.13	-4.697	309.6	
10.4	-1.15	-4.882	303.4	
10.405	-1.17	-3.11	288.7	
10.41	-1.16	2.219	228.9	
10.415	-1.13	9.601	202.3	
10.42	-1.06	16.816	212	
10.425	-0.96	20.337	185.9	
10.43	-0.85	20.47	151.8	
10.435	-0.75	20.477	138.1	
10.44	-0.64	NaN	129.8	
10.445	-0.53	20.471	122.9	
10.45	-0.43	NaN	98.1	
10.455	-0.33	20.477	104.8	
10.46	-0.22	NaN	129.1	
10.465	-0.12	20.474	103.9	
10.47	-0.02	NaN	104.7	
10.475	0.09	20.46	140	
10.48	0.19	NaN	137.3	
10.485	0.29	19.813	123.6	
10.49	0.38	17.248	118.1	
10.495	0.46	13.998	101	
10.5	0.52	10.687	85.6	
10.505	0.56	7.406	96.4	
10.51	0.59	4.901	115.6	
10.515	0.6	2.707	92.2	
10.52	0.61	0.447	53.3	
10.525	0.6	-1.45	60.4	
10.53	0.59	-3.603	79	
10.535	0.56	-6.626	36.8	
10.54	0.52	-9.175	5.8	
10.545	0.46	-10.332	19.7	
10.55	0.41	-11.1	25.2	
10.555	0.35	-11.911	38.3	
10.56	0.29	-12.584	22.7	
10.565	0.22	-14.101	8.3	
10.57	0.14	-16.247	17.4	
10.575	0.06	-17.225	22.2	
10.58	-0.03	-17.209	19.8	
10.585	-0.11	-17.314	9.8	
10.59	-0.2	-17.139	8.5	
10.595	-0.28	-16.666	22.8	
10.6	-0.37	-16.914	59.6	
10.605	-0.45	-17.616	13.7	
10.61	-0.54	-17.909	-32.9	
10.615	-0.62	-18.286	3.7	
10.62	-0.71	-18.858	46.8	
10.625	-0.81	-18.749	120.7	
10.63	-0.89	-18.208	267.7	
10.635	-0.98	-17.866	397.8	
10.64	-1.06	-17.394	434.5	
10.645	-1.14	-16.914	396.9	
10.65	-1.22	-17.049	229.5	
10.655	-1.3	-17.289	1.9	
10.66	-1.38	-16.943	-102.5	
10.665	-1.46	-16.467	-63.2	
10.67	-1.53	-15.88	4.7	
10.675	-1.6	-14.547	10.4	
10.68	-1.66	-13.078	-8	
10.685	-1.72	-12.056	9.9	
10.69	-1.77	-10.795	20	
10.695	-1.81	-9.524	18.3	
10.7	-1.85	-9.199	21.6	
10.705	-1.89	-9.135	27.8	
10.71	-1.92	-8.321	34.1	
10.715	-1.95	-7.402	38.3	
10.72	-1.98	-6.901	65	
10.725	-2	-6.268	86.4	
10.73	-2.02	-5.853	69.3	
10.735	-2.04	-6.101	69.6	
10.74	-2.06	-5.97	78.8	
10.745	-2.08	-5.121	97.1	
10.75	-2.1	-4.542	129.9	
10.755	-2.11	-4.089	138.3	
10.76	-2.12	-3.188	173	
10.765	-2.12	-2.584	194.9	
10.77	-2.13	-2.472	179.8	
10.775	-2.13	-2.338	206.6	
10.78	-2.13	-2.944	231.7	
10.785	-2.14	-4.532	218.5	
10.79	-2.16	-5.467	215.8	
10.795	-2.17	-5.211	216	
10.8	-2.19	-4.491	217	
10.805	-2.19	-2.071	206.9	
10.81	-2.18	3.009	166.3	
10.815	-2.14	9.914	151	
10.82	-2.06	17.018	136.5	
10.825	-1.96	20.398	104.9	
10.83	-1.85	20.453	93.3	
10.835	-1.74	NaN	65.3	
10.84	-1.63	NaN	52.4	
10.845	-1.52	20.472	77.3	
10.85	-1.41	NaN	65.3	
10.855	-1.3	20.476	46.6	
10.86	-1.19	NaN	53.6	
10.865	-1.08	20.477	45.9	
10.87	-0.98	NaN	51.1	
10.875	-0.87	20.476	57.5	
10.88	-0.76	NaN	51.2	
10.885	-0.66	20.306	27.1	
10.89	-0.56	18.658	38.8	
10.895	-0.47	15.174	81.3	
10.9	-0.4	10.981	35.2	
10.905	-0.35	7.582	-32.4	
10.91	-0.32	5.439	-6.9	
10.915	-0.3	3.143	38.6	
10.92	-0.29	0.19	47.8	
10.925	-0.29	-2.286	43.1	
10.93	-0.31	-4.052	11.6	
10.935	-0.33	-5.725	-12.2	
10.94	-0.36	-7.046	-30	
10.945	-0.4	-7.862	-50.8	
10.95	-0.44	-8.9	-51.2	
10.955	-0.48	-10.037	-53.3	
10.96	-0.53	-10.687	-37.4	
10.965	-0.58	-11.488	-37.4	
10.97	-0.64	-12.649	-52.4	
10.975	-0.7	-13.376	-54.5	
10.98	-0.77	-14.211	-64.4	
10.985	-0.84	-15.693	-34	
10.99	-0.92	-16.728	-7.8	
10.995	-1	-17.182	-29	
11	-1.08	-17.915	-38.8	
11.005	-1.17	-18.349	-19	
11.01	-1.25	-17.989	-28	
11.015	-1.34	-18.099	-57.4	
11.02	-1.42	-19.143	-18.7	
11.025	-1.51	-19.896	75.6	
11.03	-1.61	-20.069	184.5	
11.035	-1.7	-20.201	286.5	
11.04	-1.79	-19.838	289.8	
11.045	-1.88	-18.858	217.4	
11.05	-1.96	-18.016	120	
11.055	-2.04	-16.966	-60.9	
11.06	-2.11	-15.256	-192.6	
11.065	-2.18	-13.941	-134.2	
11.07	-2.23	-13.441	-41.5	
11.075	-2.29	-12.796	-46.8	
11.08	-2.34	-11.899	-51	
11.085	-2.39	-11.232	-40.9	
11.09	-2.43	-10.449	-63.1	
11.095	-2.47	-9.779	-79.2	
11.1	-2.51	-10.085	-68	
11.105	-2.55	-10.39	-50.2	
11.11	-2.59	-9.268	-47.2	
11.115	-2.62	-7.542	-42.9	
11.12	-2.64	-6.138	-34.3	
11.125	-2.65	-4.708	-12.6	
11.13	-2.66	-3.453	-22.8	
11.135	-2.66	-2.662	-22	
11.14	-2.66	-1.808	6.9	
11.145	-2.66	-1.103	-17.1	
11.15	-2.65	-1.367	0.6	
11.155	-2.65	-2.106	51.2	
11.16	-2.65	-2.119	51.5	
11.165	-2.64	-1.394	56	
11.17	-2.64	-0.644	73	
11.175	-2.63	-0.338	80.5	
11.18	-2.62	-1.047	92.6	
11.185	-2.61	-2.269	110.5	
11.19	-2.61	-2.355	117.7	
11.195	-2.61	-0.987	108.7	
11.2	-2.6	1.623	79.2	
11.205	-2.57	6.117	57.2	
11.21	-2.51	12.979	71.4	
11.215	-2.42	18.973	56.2	
11.22	-2.31	NaN	18.5	
11.225	-2.19	20.422	10.4	
11.23	-2.08	NaN	-2.5	
11.235	-1.97	20.463	-26.8	
11.24	-1.86	NaN	-31.7	
11.245	-1.75	NaN	-8.8	
11.25	-1.64	NaN	-18.8	
11.255	-1.53	NaN	-45.2	
11.26	-1.42	NaN	-42.2	
11.265	-1.31	20.476	-24.3	
11.27	-1.2	NaN	8.8	
11.275	-1.09	20.464	-12.2	
11.28	-0.99	NaN	-42.9	
11.285	-0.88	19.806	-12.5	
11.29	-0.78	17.832	12.7	
11.295	-0.7	15.456	23.7	
11.3	-0.62	12.672	7.4	
11.305	-0.56	9.831	-36.6	
11.31	-0.52	7.523	-31.8	
11.315	-0.48	4.764	-10.4	
11.32	-0.47	1.405	-2	
11.325	-0.47	-1.435	-4.2	
11.33	-0.48	-3.998	-13.5	
11.335	-0.5	-6.634	-34.8	
11.34	-0.54	-8.149	-50.8	
11.345	-0.58	-8.578	-49.4	
11.35	-0.62	-9.382	-53.4	
11.355	-0.67	-10.555	-50.8	
11.36	-0.72	-11.463	-66.5	
11.365	-0.77	-12.72	-75	
11.37	-0.84	-14.416	-64.9	
11.375	-0.91	-15.577	-50.3	
11.38	-0.98	-16.453	-44.4	
11.385	-1.06	-17.507	-41.8	
11.39	-1.15	-18.101	-51.5	
11.395	-1.24	-18.479	-51.7	
11.4	-1.32	-19.121	-36	
11.405	-1.41	-19.081	-52.8	
11.41	-1.5	-17.966	-61.5	
11.415	-1.58	-17.077	-56.3	
11.42	-1.66	-16.975	-29.2	
11.425	-1.73	-16.718	44.8	
11.43	-1.81	-16.38	212.9	
11.435	-1.88	-16.545	370	
11.44	-1.96	-16.484	386.1	
11.445	-2.03	-15.928	352.2	
11.45	-2.1	-15.534	200.7	
11.455	-2.16	-15.008	-38.6	
11.46	-2.23	-13.855	-143.2	
11.465	-2.28	-12.843	-94.3	
11.47	-2.33	-12.238	-46.8	
11.475	-2.38	-11.306	-57.3	
11.48	-2.43	-10.403	-36.5	
11.485	-2.47	-9.943	-24	
11.49	-2.5	-8.921	-40	
11.495	-2.53	-7.104	-35	
11.5	-2.55	-5.521	-30	
11.505	-2.56	-4.204	-10.7	
11.51	-2.57	-2.866	6.4	
11.515	-2.57	-2.257	-17.6	
11.52	-2.57	-2.449	-4.4	
11.525	-2.57	-2.799	16.5	
11.53	-2.57	-3.339	2.6	
11.535	-2.58	-3.752	-1.8	
11.54	-2.59	-3.183	12.1	
11.545	-2.59	-2.061	33.3	
11.55	-2.58	-1.718	38.4	
11.555	-2.58	-1.969	46.8	
11.56	-2.58	-1.909	30.6	
11.565	-2.58	-2.021	40.3	
11.57	-2.58	-2.794	113.2	
11.575	-2.58	-3.822	118.6	
11.58	-2.59	-4.884	83.2	
11.585	-2.61	-5.506	82	
11.59	-2.62	-4.786	97.8	
11.595	-2.63	-2.396	98.8	
11.6	-2.62	1.509	71.1	
11.605	-2.59	7.36	60.2	
11.61	-2.52	14.963	31.6	
11.615	-2.42	19.921	-20.1	
11.62	-2.3	NaN	-41.8	
11.625	-2.19	20.446	-47	
11.63	-2.08	NaN	-67.7	
11.635	-1.97	20.46	-97.9	
11.64	-1.86	NaN	-105.9	
11.645	-1.75	20.478	-111.9	
11.65	-1.64	NaN	-115.7	
11.655	-1.53	NaN	-88	
11.66	-1.42	20.477	-95.4	
11.665	-1.31	NaN	-144.9	
11.67	-1.2	NaN	-132.3	
11.675	-1.09	20.474	-105.6	
11.68	-0.98	20.376	-114.4	
11.685	-0.88	18.646	-132.3	
11.69	-0.79	15.153	-155.3	
11.695	-0.72	11.516	-153.1	
11.7	-0.67	7.673	-156.8	
11.705	-0.64	4.272	-160.4	
11.71	-0.62	2.029	-164.6	
11.715	-0.61	-0.411	-185	
11.72	-0.62	-3.283	-208.5	
11.725	-0.64	-5.211	-217.4	
11.73	-0.67	-6.502	-173.3	
11.735	-0.7	-8.264	-147	
11.74	-0.74	-10.083	-175.3	
11.745	-0.79	-11.745	-203.2	
11.75	-0.85	-13.824	-205.8	
11.755	-0.92	-15.65	-216.7	
11.76	-1	-16.362	-246.8	
11.765	-1.08	-16.754	-249	
11.77	-1.16	-17.253	-226.6	
11.775	-1.24	-17.233	-211.1	
11.78	-1.32	-17.259	-237.9	
11.785	-1.4	-17.981	-263.3	
11.79	-1.49	-18.537	-243.8	
11.795	-1.57	-18.622	-241	
11.8	-1.66	-18.846	-225.2	
11.805	-1.74	-18.856	-201.4	
11.81	-1.83	-18.243	-228.8	
11.815	-1.91	-17.799	-260.1	
11.82	-1.99	-17.701	-266.2	
11.825	-2.07	-17.277	-237	
11.83	-2.14	-16.906	-189.7	
11.835	-2.22	-17.137	-57.4	
11.84	-2.29	-17.134	146.8	
11.845	-2.37	-16.486	251.1	
11.85	-2.44	-15.918	250.9	
11.855	-2.5	-15.404	121.5	
11.86	-2.57	-14.751	-138.7	
11.865	-2.63	-14.438	-323.7	
11.87	-2.69	-14.138	-342.1	
11.875	-2.75	-12.992	-279	
11.88	-2.79	-11.423	-222.3	
11.885	-2.83	-10.039	-231.7	
11.89	-2.87	-8.299	-234.8	
11.895	-2.89	-6.482	-200.4	
11.9	-2.91	-5.799	-223.3	
11.905	-2.92	-6.086	-246.8	
11.91	-2.94	-6.482	-215.7	
11.915	-2.96	-6.829	-202.3	
11.92	-2.98	-6.671	-198	
11.925	-3	-5.288	-179.5	
11.93	-3.01	-3.527	-184.2	
11.935	-3.01	-2.766	-188.9	
11.94	-3.01	-2.531	-181.4	
11.945	-3.01	-2.253	-190.7	
11.95	-3	-2.596	-178.2	
11.955	-3	-3.313	-141.3	
11.96	-3.01	-3.691	-97.8	
11.965	-3.01	-4.24	-80.2	
11.97	-3.02	-4.905	-76	
11.975	-3.03	-4.816	-29.9	
11.98	-3.04	-4.649	17.8	
11.985	-3.05	-5.136	5.4	
11.99	-3.07	-5.093	0.5	
11.995	-3.08	-4.246	34.8	
12	-3.08	-3.531	28.8	
12.005	-3.08	-1.564	24.3	
12.01	-3.06	3.07	44.9	
12.015	-3.02	9.585	40.4	
12.02	-2.94	16.569	16.3	
12.025	-2.83	20.293	-2.7	
12.03	-2.72	NaN	-32.3	
12.035	-2.6	20.473	-72.9	
12.04	-2.49	NaN	-89.1	
12.045	-2.37	20.466	-74.3	
12.05	-2.26	NaN	-82	
12.055	-2.15	20.479	-86.5	
12.06	-2.04	NaN	-83.9	
12.065	-1.93	NaN	-106.3	
12.07	-1.81	20.478	-109.2	
12.075	-1.7	NaN	-87.2	
12.08	-1.59	20.477	-72.7	
12.085	-1.48	NaN	-93.1	
12.09	-1.38	20.247	-117.8	
12.095	-1.27	18.113	-120.4	
12.1	-1.19	13.581	-117.2	
12.105	-1.13	8.824	-94.3	
12.11	-1.09	5.387	-75.8	
12.115	-1.06	2.629	-100.1	
12.12	-1.05	-0.052	-115.1	
12.125	-1.05	-2.39	-101.3	
12.13	-1.06	-4.905	-87.3	
12.135	-1.09	-7.884	-76.8	
12.14	-1.13	-10.236	-90.5	
12.145	-1.18	-11.934	-105.4	
12.15	-1.24	-14.203	-96	
12.155	-1.31	-16.374	-111.6	
12.16	-1.39	-17.111	-137.8	
12.165	-1.47	-17.251	-151.2	
12.17	-1.55	-17.438	-145.7	
12.175	-1.63	-17.072	-125.1	
12.18	-1.71	-16.944	-134.9	
12.185	-1.79	-18.111	-113	
12.19	-1.87	-19.616	-110.9	
12.195	-1.96	-20.343	-142.2	
12.2	-2.06	NaN	-116.3	
12.205	-2.15	-20.395	-102.5	
12.21	-2.24	-19.912	-96.8	
12.215	-2.33	-19.617	-93.3	
12.22	-2.42	-19.751	-106.4	
12.225	-2.5	-19.535	-111.8	
12.23	-2.59	-19.356	-138.6	
12.235	-2.67	-19.656	-84.1	
12.24	-2.76	-19.316	52.3	
12.245	-2.84	-18.264	214.9	
12.25	-2.92	-17.612	431.9	
12.255	-2.99	-16.93	539.1	
12.26	-3.06	-15.66	461.3	
12.265	-3.12	-14.638	261.4	
12.27	-3.18	-14.054	5.4	
12.275	-3.23	-13.218	-135.6	
12.28	-3.28	-12.336	-113.4	
12.285	-3.32	-11.756	-54	
12.29	-3.37	-10.899	-54.2	
12.295	-3.4	-9.689	-54.6	
12.3	-3.43	-8.734	-38.9	
12.305	-3.46	-7.664	-44.6	
12.31	-3.48	-6.383	-26.8	
12.315	-3.49	-6.109	-29.4	
12.32	-3.51	-6.628	-54.3	
12.325	-3.52	-6.459	-61.8	
12.33	-3.54	-5.608	-55.4	
12.335	-3.55	-4.633	-53.3	
12.34	-3.55	-3.217	-54.4	
12.345	-3.55	-1.684	-75.6	
12.35	-3.54	-1.191	-105.9	
12.355	-3.53	-1.601	-100.5	
12.36	-3.52	-2.237	-90.8	
12.365	-3.52	-3.486	-56.5	
12.37	-3.52	-4.811	-23.9	
12.375	-3.53	-4.681	-21.6	
12.38	-3.54	-3.607	-4.1	
12.385	-3.54	-3.243	6.3	
12.39	-3.54	-3.511	11.1	
12.395	-3.54	-3.675	24.2	
12.4	-3.54	-3.829	58.6	
12.405	-3.54	-3.544	75.3	
12.41	-3.54	-1.696	48.1	
12.415	-3.53	1.868	24.3	
12.42	-3.49	7.181	4.6	
12.425	-3.42	14.582	-11.4	
12.43	-3.31	19.824	-29.9	
12.435	-3.2	NaN	-31.7	
12.44	-3.08	20.44	-37.1	
12.445	-2.96	NaN	-91.7	
12.45	-2.85	20.457	-125.3	
12.455	-2.73	NaN	-126.3	
12.46	-2.62	20.476	-115.8	
12.465	-2.5	NaN	-94.7	
12.47	-2.39	NaN	-113.2	
12.475	-2.28	NaN	-143.8	
12.48	-2.17	20.473	-148.3	
12.485	-2.05	NaN	-138.4	
12.49	-1.94	20.463	-124.7	
12.495	-1.83	NaN	-96.5	
12.5	-1.72	19.817	-110.8	
12.505	-1.62	16.712	-169.4	
12.51	-1.54	12.156	-169.2	
12.515	-1.49	7.604	-135.8	
12.52	-1.45	3.566	-145.7	
12.525	-1.44	0.861	-186	
12.53	-1.43	-1.228	-179.2	
12.535	-1.44	-3.731	-140.5	
12.54	-1.45	-6.056	-125.6	
12.545	-1.48	-8.065	-129.2	
12.55	-1.52	-10.817	-143.7	
12.555	-1.58	-13.986	-157.9	
12.56	-1.65	-16.153	-162.9	
12.565	-1.72	-17.348	-183.2	
12.57	-1.8	-18.04	-222.6	
12.575	-1.88	-17.98	-225.8	
12.58	-1.97	-17.844	-210	
12.585	-2.05	-18.461	-208	
12.59	-2.13	-18.963	-193.3	
12.595	-2.22	-19.146	-204.3	
12.6	-2.3	-19.881	-214.5	
12.605	-2.39	-20.459	-197.3	
12.61	-2.48	NaN	-195.5	
12.615	-2.58	-20.476	-169.7	
12.62	-2.67	NaN	-174.5	
12.625	-2.75	-20.102	-180.8	
12.63	-2.84	-19.393	-192.9	
12.635	-2.92	-19.088	-251.4	
12.64	-3	-18.814	-238.2	
12.645	-3.08	-18.503	-153.4	
12.65	-3.16	-19.034	-21.5	
12.655	-3.25	-19.602	193.4	
12.66	-3.33	-19.045	386.1	
12.665	-3.41	-18.177	443.9	
12.67	-3.48	-17.452	379.7	
12.675	-3.55	-16.059	152.3	
12.68	-3.61	-14.469	-136.3	
12.685	-3.66	-13.677	-267.6	
12.69	-3.71	-13.089	-273.6	
12.695	-3.76	-12.444	-225.5	
12.7	-3.8	-12.463	-182.3	
12.705	-3.85	-12.26	-175.1	
12.71	-3.89	-10.659	-192.7	
12.715	-3.92	-8.544	-220.3	
12.72	-3.94	-6.679	-199.4	
12.725	-3.95	-4.771	-171.6	
12.73	-3.95	-3.483	-148.8	
12.735	-3.95	-3.668	-155.4	
12.74	-3.95	-4.537	-169.3	
12.745	-3.96	-5.072	-137.4	
12.75	-3.96	-5.254	-110.1	
12.755	-3.97	-4.768	-131.2	
12.76	-3.97	-3.477	-132.9	
12.765	-3.97	-2.693	-107.9	
12.77	-3.97	-2.851	-96.2	
12.775	-3.96	-2.816	-44.6	
12.78	-3.96	-2.534	-35.3	
12.785	-3.95	-2.449	-52.8	
12.79	-3.95	-2.126	-2	
12.795	-3.94	-1.869	16.3	
12.8	-3.93	-2.61	-7.7	
12.805	-3.93	-3.568	21.2	
12.81	-3.93	-3.596	75.2	
12.815	-3.93	-3.365	90.8	
12.82	-3.93	-2.986	90.4	
12.825	-3.92	-0.622	63.6	
12.83	-3.89	3.936	42.8	
12.835	-3.84	10.049	48.9	
12.84	-3.75	16.962	15.4	
12.845	-3.64	20.404	-26.6	
12.85	-3.52	20.448	-40	
12.855	-3.4	NaN	-46.3	
12.86	-3.29	NaN	-62.4	
12.865	-3.17	20.471	-101.4	
12.87	-3.05	NaN	-101	
12.875	-2.94	20.479	-83.5	
12.88	-2.82	NaN	-91.4	
12.885	-2.71	NaN	-89	
12.89	-2.59	20.476	-96.4	
12.895	-2.48	NaN	-109.1	
12.9	-2.36	20.474	-100.3	
12.905	-2.25	NaN	-91.4	
12.91	-2.14	20.124	-102.2	
12.915	-2.03	17.321	-99.3	
12.92	-1.95	12.227	-96.3	
12.925	-1.89	7.503	-93.2	
12.93	-1.86	3.782	-103	
12.935	-1.84	0.551	-142.7	
12.94	-1.83	-1.731	-144.1	
12.945	-1.84	-3.163	-128.8	
12.95	-1.85	-4.892	-131.2	
12.955	-1.87	-6.816	-123	
12.96	-1.9	-8.399	-137.9	
12.965	-1.94	-10.445	-184.6	
12.97	-1.99	-12.935	-180.2	
12.975	-2.05	-14.598	-168.6	
12.98	-2.11	-15.496	-182.8	
12.985	-2.18	-16.236	-172.9	
12.99	-2.25	-16.421	-186.9	
12.995	-2.33	-16.372	-178.7	
13	-2.4	-16.963	-159.9	
13.005	-2.47	-17.677	-191.4	
13.01	-2.55	-18.076	-197.7	
13.015	-2.63	-18.951	-186	
13.02	-2.72	-20.016	-160.8	
13.025	-2.81	-20.023	-145.7	
13.03	-2.89	-19.534	-164.7	
13.035	-2.98	-19.667	-164.2	
13.04	-3.06	-19.933	-195.7	
13.045	-3.15	-20.137	-210.8	
13.05	-3.23	-20.412	-176.1	
13.055	-3.32	NaN	-123.3	
13.06	-3.41	-20.202	-27	
13.065	-3.49	-19.579	137.1	
13.07	-3.57	-19.087	298	
13.075	-3.65	-18.435	333.6	
13.08	-3.72	-17.75	258.9	
13.085	-3.79	-17.503	70.3	
13.09	-3.86	-16.81	-148.2	
13.095	-3.93	-15.413	-248.4	
13.1	-3.98	-14.293	-239.5	
13.105	-4.03	-13.161	-201.5	
13.11	-4.07	-11.535	-159.3	
13.115	-4.11	-10.369	-143.6	
13.12	-4.14	-9.531	-150.2	
13.125	-4.17	-8.041	-127	
13.13	-4.18	-6.642	-121.3	
13.135	-4.2	-6.159	-113.6	
13.14	-4.21	-5.779	-109.2	
13.145	-4.21	-5.107	-113.1	
13.15	-4.22	-4.804	-99.8	
13.155	-4.22	-4.514	-96.3	
13.16	-4.22	-3.652	-93.2	
13.165	-4.22	-2.966	-102.1	
13.17	-4.22	-2.526	-92.4	
13.175	-4.21	-1.826	-47.7	
13.18	-4.2	-1.564	-60.6	
13.185	-4.19	-2.008	-50.7	
13.19	-4.18	-1.984	12.4	
13.195	-4.17	-1.323	-3.7	
13.2	-4.15	-1.183	8.2	
13.205	-4.14	-1.456	77.3	
13.21	-4.13	-1.682	105.2	
13.215	-4.12	-2.649	100.9	
13.22	-4.12	-4.246	120.7	
13.225	-4.13	-5.072	122.6	
13.23	-4.13	-4.907	101	
13.235	-4.13	-3.445	96.7	
13.24	-4.12	0.782	83.3	
13.245	-4.08	7.615	71.6	
13.25	-4.01	15.313	50.8	
13.255	-3.9	19.984	20.9	
13.26	-3.78	NaN	-3.2	
13.265	-3.66	20.445	-0.5	
13.27	-3.54	NaN	24.6	
13.275	-3.42	20.46	-24.2	
13.28	-3.31	NaN	-91.3	
13.285	-3.19	20.476	-39.1	
13.29	-3.07	NaN	1.3	
13.295	-2.95	NaN	-54.8	
13.3	-2.84	20.475	-72.8	
13.305	-2.72	NaN	-55.3	
13.31	-2.61	20.464	-40.7	
13.315	-2.5	NaN	-23.8	
13.32	-2.38	19.854	-44	
13.325	-2.28	17.593	-48.5	
13.33	-2.19	14.473	-26.2	
13.335	-2.11	10.972	-41.7	
13.34	-2.06	7.601	-79.1	
13.345	-2.02	4.641	-84.5	
13.35	-1.99	1.239	-42.3	
13.355	-1.99	-2.102	-35.2	
13.36	-2	-4.301	-92.8	
13.365	-2.01	-5.893	-91.3	
13.37	-2.04	-7.464	-50.7	
13.375	-2.07	-8.731	-65.4	
13.38	-2.1	-10.004	-106.4	
13.385	-2.15	-11.696	-143.8	
13.39	-2.2	-13.384	-139.8	
13.395	-2.26	-15.004	-118.9	
13.4	-2.33	-16.728	-114.4	
13.405	-2.41	-17.642	-93.5	
13.41	-2.48	-17.255	-74.3	
13.415	-2.56	-16.874	-97.6	
13.42	-2.63	-17.23	-111.9	
13.425	-2.71	-17.666	-93.9	
13.43	-2.78	-18.399	-92.3	
13.435	-2.87	-19.702	-95.9	
13.44	-2.95	-20.456	-104.1	
13.445	-3.04	-20.477	-94.1	
13.45	-3.13	NaN	-72.9	
13.455	-3.22	-20.435	-98.9	
13.46	-3.3	-19.961	-108.2	
13.465	-3.39	-19.461	-51.5	
13.47	-3.47	-19.358	64.8	
13.475	-3.55	-19.282	227.1	
13.48	-3.63	-19.618	329.5	
13.485	-3.71	-20.097	283.5	
13.49	-3.79	-19.037	158.3	
13.495	-3.87	-16.751	-23	
13.5	-3.93	-15.139	-173.2	
13.505	-3.98	-14.128	-190.4	
13.51	-4.03	-12.876	-154.7	
13.515	-4.07	-12.008	-96.4	
13.52	-4.11	-11.709	-74.2	
13.525	-4.15	-10.958	-93.9	
13.53	-4.19	-9.691	-85.8	
13.535	-4.21	-8.472	-93.6	
13.54	-4.23	-7.076	-91.8	
13.545	-4.24	-5.821	-64.9	
13.55	-4.25	-5.504	-54.6	
13.555	-4.26	-5.534	-56.8	
13.56	-4.27	-5.038	-62.4	
13.565	-4.27	-4.482	-61	
13.57	-4.27	-4.107	-40.5	
13.575	-4.27	-3.284	-16.5	
13.58	-4.27	-2.574	-26.8	
13.585	-4.26	-2.875	-13.7	
13.59	-4.26	-3.396	25.4	
13.595	-4.25	-3.483	9.6	
13.6	-4.25	-3.513	16	
13.605	-4.25	-2.972	40.2	
13.61	-4.24	-1.546	33.3	
13.615	-4.23	-0.787	60.8	
13.62	-4.21	-1.381	95.3	
13.625	-4.2	-2.184	120.1	
13.63	-4.2	-2.877	114.2	
13.635	-4.19	-3.652	106.5	
13.64	-4.19	-3.001	106.6	
13.645	-4.18	0.499	96.8	
13.65	-4.15	6.257	96.1	
13.655	-4.08	13.778	66.3	
13.66	-3.97	19.489	22.6	
13.665	-3.85	NaN	-0.7	
13.67	-3.73	20.426	27.3	
13.675	-3.61	NaN	11.5	
13.68	-3.5	20.454	-28.4	
13.685	-3.38	NaN	-18.7	
13.69	-3.26	20.478	-54.9	
13.695	-3.14	NaN	-51.4	
13.7	-3.03	NaN	-5.3	
13.705	-2.91	NaN	-8.5	
13.71	-2.79	20.473	-28.3	
13.715	-2.68	NaN	-56	
13.72	-2.57	20.466	-18.5	
13.725	-2.45	NaN	30	
13.73	-2.34	20.028	-9.4	
13.735	-2.23	17.785	-2.4	
13.74	-2.14	15.181	12.8	
13.745	-2.06	12.701	0.8	
13.75	-2	8.504	-7.7	
13.755	-1.96	3.501	-56.8	
13.76	-1.94	-0.413	-53.5	
13.765	-1.95	-3.299	-36.7	
13.77	-1.96	-5.286	-40.5	
13.775	-1.98	-6.084	-14.5	
13.78	-2	-6.606	-6.5	
13.785	-2.03	-7.56	-29.3	
13.79	-2.06	-8.414	-67.1	
13.795	-2.09	-9.457	-100.6	
13.8	-2.13	-11.548	-104.6	
13.805	-2.19	-13.946	-103.4	
13.81	-2.25	-15.606	-72.2	
13.815	-2.32	-16.889	-48.9	
13.82	-2.4	-17.839	-88.6	
13.825	-2.48	-17.866	-91.5	
13.83	-2.56	-17.651	-98.3	
13.835	-2.63	-18.11	-128.8	
13.84	-2.71	-18.607	-98.8	
13.845	-2.79	-18.793	-68.8	
13.85	-2.88	-19.409	-73.8	
13.855	-2.96	-20.024	-73.5	
13.86	-3.05	-19.854	-53.7	
13.865	-3.13	-19.581	-56.5	
13.87	-3.21	-19.396	-34.3	
13.875	-3.29	-18.536	87.3	
13.88	-3.37	-17.575	250.9	
13.885	-3.44	-17.34	316.8	
13.89	-3.51	-16.903	275	
13.895	-3.58	-15.929	173.5	
13.9	-3.64	-15.406	9.6	
13.905	-3.7	-14.936	-126.3	
13.91	-3.75	-13.794	-167.4	
13.915	-3.8	-12.826	-148.8	
13.92	-3.85	-12.297	-122.1	
13.925	-3.89	-11.261	-61	
13.93	-3.92	-9.784	-55.8	
13.935	-3.95	-8.415	-88.8	
13.94	-3.97	-6.915	-67.5	
13.945	-3.98	-5.73	-42.7	
13.95	-3.99	-5.615	-23.2	
13.955	-4	-5.439	-15.3	
13.96	-4.01	-4.314	-28.8	
13.965	-4.01	-3.424	-20.5	
13.97	-4.01	-3.224	-34.5	
13.975	-4.01	-2.927	-64.6	
13.98	-4	-2.601	-8.2	
13.985	-4	-2.538	35.5	
13.99	-3.99	-2.178	6.2	
13.995	-3.98	-1.818	21.1	
14	-3.97	-2.126	75.5	
14.005	-3.96	-2.023	65.7	
14.01	-3.95	-0.916	57.8	
14.015	-3.94	-0.257	73.4	
14.02	-3.92	-0.986	108.8	
14.025	-3.91	-2.479	135	
14.03	-3.91	-3.869	130.1	
14.035	-3.92	-4.534	150.8	
14.04	-3.92	-3.969	153.3	
14.045	-3.92	-1.684	134	
14.05	-3.9	2.212	125	
14.055	-3.85	8.296	139.6	
14.06	-3.78	16.073	108.5	
14.065	-3.67	20.296	49.6	
14.07	-3.55	20.468	57.4	
14.075	-3.43	20.479	63	
14.08	-3.31	NaN	63.7	
14.085	-3.19	20.467	46.3	
14.09	-3.08	NaN	35.3	
14.095	-2.96	20.476	57.5	
14.1	-2.84	NaN	25.7	
14.105	-2.73	NaN	4.7	
14.11	-2.61	NaN	1.6	
14.115	-2.5	20.474	19	
14.12	-2.39	NaN	48.1	
14.125	-2.27	20.46	28.5	
14.13	-2.16	NaN	42	
14.135	-2.05	19.539	60.3	
14.14	-1.95	16.488	67.7	
14.145	-1.87	12.86	87.8	
14.15	-1.8	9.431	64.7	
14.155	-1.76	6.125	23.8	
14.16	-1.73	3.278	19.7	
14.165	-1.71	0.47	48.9	
14.17	-1.71	-2.124	54.9	
14.175	-1.71	-3.929	31	
14.18	-1.73	-5.755	32.1	
14.185	-1.76	-8.201	31.1	
14.19	-1.79	-10.153	19	
14.195	-1.84	-11.232	13.3	
14.2	-1.89	-12.344	-7.8	
14.205	-1.95	-13.331	3.6	
14.21	-2	-13.892	16.7	
14.215	-2.07	-14.876	-1.3	
14.22	-2.14	-16.078	-14.7	
14.225	-2.21	-16.484	-40.8	
14.23	-2.28	-16.666	-33.9	
14.235	-2.35	-17.375	-5.9	
14.24	-2.43	-17.964	-7.8	
14.245	-2.51	-18.386	-8.8	
14.25	-2.59	-19.286	-37.9	
14.255	-2.68	-19.851	-22.8	
14.26	-2.77	-19.284	23.3	
14.265	-2.85	-18.463	37.5	
14.27	-2.92	-17.925	40.2	
14.275	-3	-17.262	53.9	
14.28	-3.07	-16.872	105.6	
14.285	-3.14	-17.141	182.6	
14.29	-3.21	-17.03	319.6	
14.295	-3.28	-16.172	371.9	
14.3	-3.34	-15.428	281.5	
14.305	-3.4	-14.499	160.2	
14.31	-3.46	-12.888	-10.9	
14.315	-3.5	-11.479	-90.7	
14.32	-3.54	-10.491	-70.8	
14.325	-3.57	-9.305	-43.6	
14.33	-3.6	-8.512	18.5	
14.335	-3.63	-8.393	51.3	
14.34	-3.65	-7.469	34	
14.345	-3.67	-5.516	10.6	
14.35	-3.67	-4.101	15.2	
14.355	-3.68	-3.485	7.3	
14.36	-3.67	-2.979	20.7	
14.365	-3.67	-2.723	60.5	
14.37	-3.67	-2.834	42.1	
14.375	-3.67	-2.922	47.6	
14.38	-3.66	-3.274	71.3	
14.385	-3.67	-4.129	59.1	
14.39	-3.67	-4.299	76	
14.395	-3.67	-3.598	106.7	
14.4	-3.67	-3.413	99.1	
14.405	-3.68	-3.585	88.7	
14.41	-3.68	-3.221	122	
14.415	-3.67	-2.942	154.7	
14.42	-3.67	-3.152	177.8	
14.425	-3.67	-3.044	185	
14.43	-3.67	-2.968	188.2	
14.435	-3.67	-3.849	208.3	
14.44	-3.67	-4.74	227	
14.445	-3.68	-4.845	233.6	
14.45	-3.69	-4.339	198.7	
14.455	-3.69	-1.665	182	
14.46	-3.67	3.849	187.7	
14.465	-3.61	10.714	193.2	
14.47	-3.52	17.341	208.9	
14.475	-3.41	20.419	179.6	
14.48	-3.29	20.453	147.1	
14.485	-3.18	NaN	148.1	
14.49	-3.06	NaN	136	
14.495	-2.94	20.472	109.8	
14.5	-2.83	NaN	102.2	
14.505	-2.71	NaN	122.5	
14.51	-2.6	NaN	129.1	
14.515	-2.49	NaN	120	
14.52	-2.37	NaN	113.2	
14.525	-2.26	NaN	122.9	
14.53	-2.15	NaN	142.3	
14.535	-2.04	20.476	135.7	
14.54	-1.92	20.402	100.4	
14.545	-1.82	18.869	96.8	
14.55	-1.72	14.985	113.4	
14.555	-1.65	10.447	90.5	
14.56	-1.6	6.512	104	
14.565	-1.57	2.828	130.4	
14.57	-1.56	-0.492	112.7	
14.575	-1.56	-2.78	95.3	
14.58	-1.57	-4.511	91.6	
14.585	-1.59	-6.433	121.9	
14.59	-1.62	-8.428	141.7	
14.595	-1.66	-10.404	117.2	
14.6	-1.71	-12.239	76.6	
14.605	-1.77	-13.296	35	
14.61	-1.83	-13.564	54.4	
14.615	-1.89	-14.226	63.3	
14.62	-1.95	-15.503	27.8	
14.625	-2.02	-16.458	68.2	
14.63	-2.1	-17.438	79.8	
14.635	-2.18	-18.934	18	
14.64	-2.27	-19.913	3.7	
14.645	-2.36	-20.019	24.9	
14.65	-2.44	-20.166	58.3	
14.655	-2.54	-20.172	65.5	
14.66	-2.62	-19.531	50.6	
14.665	-2.71	-19.045	37.3	
14.67	-2.79	-18.986	29	
14.675	-2.87	-18.822	50.7	
14.68	-2.95	-18.791	67	
14.685	-3.03	-18.918	80	
14.69	-3.11	-18.262	128.2	
14.695	-3.18	-16.749	190.2	
14.7	-3.25	-15.48	279.2	
14.705	-3.31	-14.565	367.3	
14.71	-3.37	-13.666	368.4	
14.715	-3.42	-13.445	281.6	
14.72	-3.47	-13.606	93.9	
14.725	-3.52	-12.644	-63.2	
14.73	-3.56	-10.72	-63.1	
14.735	-3.59	-8.994	-25.6	
14.74	-3.62	-7.316	21.4	
14.745	-3.63	-5.604	65	
14.75	-3.64	-4.54	57.8	
14.755	-3.65	-3.882	33.6	
14.76	-3.65	-3.316	43.1	
14.765	-3.65	-3.638	62.2	
14.77	-3.65	-4.658	50.4	
14.775	-3.66	-4.929	46.4	
14.78	-3.67	-4.439	67.8	
14.785	-3.67	-3.963	60.2	
14.79	-3.67	-3.365	9.6	
14.795	-3.67	-2.939	23.6	
14.8	-3.67	-3.291	68.7	
14.805	-3.67	-3.868	81.1	
14.81	-3.67	-4.022	101.7	
14.815	-3.68	-4.321	107.3	
14.82	-3.68	-4.941	105.4	
14.825	-3.69	-4.867	114.2	
14.83	-3.7	-4.046	120	
14.835	-3.7	-3.354	163	
14.84	-3.7	-2.978	210.9	
14.845	-3.7	-3.495	196.2	
14.85	-3.7	-5.352	184.4	
14.855	-3.71	-6.808	219.2	
14.86	-3.73	-6.311	211.8	
14.865	-3.74	-4.079	190.3	
14.87	-3.73	0.091	203.3	
14.875	-3.7	6.671	165.3	
14.88	-3.63	14.647	131	
14.885	-3.53	19.795	163.2	
14.89	-3.41	NaN	151.1	
14.895	-3.29	20.439	86.3	
14.9	-3.17	NaN	82.5	
14.905	-3.06	20.46	97.9	
14.91	-2.94	NaN	89.3	
14.915	-2.83	20.479	73.9	
14.92	-2.71	NaN	52.4	
14.925	-2.6	NaN	90.7	
14.93	-2.48	20.476	107.5	
14.935	-2.37	NaN	56.4	
14.94	-2.25	20.477	51.8	
14.945	-2.14	NaN	65.2	
14.95	-2.03	20.332	56.3	
14.955	-1.92	18.849	72.1	
14.96	-1.83	15.957	86.6	
14.965	-1.75	12.279	50	
14.97	-1.69	8.293	48.6	
14.975	-1.65	5.003	71.8	
14.98	-1.62	1.991	65.7	
14.985	-1.62	-1.398	70.1	
14.99	-1.62	-4.234	72.5	
14.995	-1.64	-6.281	55.3	
15	-1.67	-8.545	49.9	
15.005	-1.71	-10.844	50.7	
15.01	-1.76	-12.526	25.3	
15.015	-1.82	-14.16	16.9	
15.02	-1.89	-15.763	-1.1	
15.025	-1.96	-16.386	5	
15.03	-2.03	-16.626	16	
15.035	-2.11	-17.523	-9.8	
15.04	-2.19	-18.434	-13.2	
15.045	-2.27	-19.068	-18.1	
15.05	-2.36	-19.879	-17.2	
15.055	-2.45	-20.358	-5.1	
15.06	-2.54	-19.996	-1.8	
15.065	-2.63	-19.747	8.9	
15.07	-2.71	-20.106	15.7	
15.075	-2.8	-20.216	-3.8	
15.08	-2.89	-20.219	-25.5	
15.085	-2.98	-20.437	-13.8	
15.09	-3.07	NaN	-17.1	
15.095	-3.15	-20.473	-37.7	
15.1	-3.24	-20.236	-15.5	
15.105	-3.33	-19.083	27.4	
15.11	-3.4	-17.113	95.2	
15.115	-3.47	-15.635	208.5	
15.12	-3.53	-14.994	325.8	
15.125	-3.58	-14.142	366.7	
15.13	-3.63	-13.095	322.3	
15.135	-3.68	-12.291	196.3	
15.14	-3.72	-10.96	17.6	
15.145	-3.76	-9.052	-64.8	
15.15	-3.78	-7.624	-89.3	
15.155	-3.8	-6.484	-96.7	
15.16	-3.81	-5.216	-42.2	
15.165	-3.82	-4.639	-10.8	
15.17	-3.82	-4.641	-24.9	
15.175	-3.83	-4.051	-17.8	
15.18	-3.83	-3.218	2.4	
15.185	-3.83	-2.986	-27.6	
15.19	-3.82	-2.774	-34.1	
15.195	-3.82	-2.398	-8	
15.2	-3.81	-2.596	-8.7	
15.205	-3.81	-2.856	-1.6	
15.21	-3.81	-2.672	6.3	
15.215	-3.8	-3.019	19.9	
15.22	-3.8	-3.923	29.3	
15.225	-3.81	-4.359	29.4	
15.23	-3.81	-4.501	23.5	
15.235	-3.82	-4.89	24.9	
15.24	-3.82	-4.991	45	
15.245	-3.83	-4.584	74.7	
15.25	-3.83	-4.433	115.5	
15.255	-3.84	-4.599	115.6	
15.26	-3.85	-4.919	114.9	
15.265	-3.85	-5.824	135.3	
15.27	-3.87	-6.682	125.1	
15.275	-3.88	-6.286	142.1	
15.28	-3.89	-4.774	131.2	
15.285	-3.89	-2.013	114.3	
15.29	-3.87	2.961	146.9	
15.295	-3.82	9.992	110.4	
15.3	-3.74	17.078	62	
15.305	-3.63	20.383	71.4	
15.31	-3.51	20.461	59.8	
15.315	-3.39	NaN	21.2	
15.32	-3.27	NaN	30.9	
15.325	-3.15	20.472	68.6	
15.33	-3.04	NaN	95.5	
15.335	-2.92	20.476	122.4	
15.34	-2.81	NaN	102.4	
15.345	-2.69	NaN	86.8	
15.35	-2.58	NaN	122.4	
15.355	-2.46	NaN	133	
15.36	-2.35	20.466	120.9	
15.365	-2.24	20.453	130.5	
15.37	-2.13	19.086	142.1	
15.375	-2.03	15.784	138.6	
15.38	-1.95	11.986	126	
15.385	-1.89	8.094	117.1	
15.39	-1.85	4.674	128.4	
15.395	-1.83	1.837	121.7	
15.4	-1.82	-1.417	117.7	
15.405	-1.83	-4.569	134.5	
15.41	-1.85	-6.811	130	
15.415	-1.88	-8.923	133.8	
15.42	-1.92	-11.033	125.7	
15.425	-1.97	-12.286	113.6	
15.43	-2.02	-13.274	147.2	
15.435	-2.08	-14.781	117.2	
15.44	-2.15	-16.156	77.4	
15.445	-2.22	-17.026	91.5	
15.45	-2.3	-17.859	68.3	
15.455	-2.38	-18.478	48.3	
15.46	-2.46	-18.632	31.9	
15.465	-2.54	-19.067	28.2	#3 Post-Exercise Heartrate 
15.47	-2.63	-19.773	48.3	
15.475	-2.72	-20.003	59.7	
15.48	-2.81	-20.148	58.7	
15.485	-2.89	-20.459	47.3	
15.49	-2.98	-20.324	48.5	
15.495	-3.07	-19.744	47.6	
15.5	-3.15	-19.551	62.1	
15.505	-3.24	-19.598	64.8	
15.51	-3.32	-19.204	38.5	
15.515	-3.4	-19.05	31	
15.52	-3.48	-19.169	37.5	
15.525	-3.56	-18.424	30.6	
15.53	-3.63	-17.313	54.9	
15.535	-3.7	-16.75	154.5	
15.54	-3.76	-15.893	283.4	
15.545	-3.82	-14.479	403.6	
15.55	-3.87	-13.498	472.8	
15.555	-3.92	-12.778	409.9	
15.56	-3.96	-11.569	189.4	
15.565	-4	-10.382	3.5	
15.57	-4.03	-9.467	-50.8	
15.575	-4.06	-8.201	-43.4	
15.58	-4.08	-7.044	-21.8	
15.585	-4.09	-6.654	-19.7	
15.59	-4.11	-6.225	10.3	
15.595	-4.12	-5.514	34.4	
15.6	-4.12	-5.338	14.8	
15.605	-4.13	-5.259	-0.9	
15.61	-4.14	-4.628	-1.7	
15.615	-4.14	-4.514	26	
15.62	-4.15	-5.478	58.3	
15.625	-4.16	-6.235	21	
15.63	-4.17	-6.121	-7.8	
15.635	-4.18	-5.844	20.9	
15.64	-4.19	-5.9	47.7	
15.645	-4.2	-6.381	44.3	
15.65	-4.22	-7.251	46.5	
15.655	-4.23	-7.588	78.6	
15.66	-4.25	-7.174	98.2	
15.665	-4.27	-7.383	98.9	
15.67	-4.29	-8.166	63.3	
15.675	-4.31	-8.173	67.2	
15.68	-4.33	-7.669	121.8	
15.685	-4.35	-7.778	150.7	
15.69	-4.37	-8.151	192.9	
15.695	-4.39	-7.979	222.2	
15.7	-4.41	-7.44	213.5	
15.705	-4.42	-6.049	198.5	
15.71	-4.42	-2.649	174.4	
15.715	-4.4	2.309	160.5	
15.72	-4.36	8.372	160.6	
15.725	-4.28	15.636	163.1	
15.73	-4.17	20.112	131.6	
15.735	-4.05	NaN	75.8	
15.74	-3.93	20.458	59.8	
15.745	-3.81	NaN	64.9	
15.75	-3.69	20.462	68.3	
15.755	-3.57	NaN	62.8	
15.76	-3.45	20.476	49.8	
15.765	-3.33	NaN	34.2	
15.77	-3.21	NaN	17.8	
15.775	-3.1	20.475	12.9	
15.78	-2.98	NaN	7	
15.785	-2.86	20.466	18	
15.79	-2.75	NaN	37.7	
15.795	-2.63	19.709	27.3	
15.8	-2.53	16.524	14.1	
15.805	-2.45	12.157	8.8	
15.81	-2.39	8.382	-6.8	
15.815	-2.34	4.775	-22.5	
15.82	-2.32	1.191	-31.7	
15.825	-2.31	-1.673	-10.3	
15.83	-2.31	-4.309	12.6	
15.835	-2.33	-7.394	-18.3	
15.84	-2.37	-10.051	-55.8	
15.845	-2.41	-11.976	-50.3	
15.85	-2.46	-13.989	-32.2	
15.855	-2.53	-15.869	-22.1	
15.86	-2.6	-17.133	-32.9	
15.865	-2.67	-18.314	-74	
15.87	-2.76	-19.344	-93.5	
15.875	-2.84	-19.519	-60.8	
15.88	-2.93	-19.523	-50.7	
15.885	-3.01	-20.096	-104.7	
15.89	-3.1	-20.478	-110.4	
15.895	-3.19	-20.475	-77.1	
15.9	-3.27	NaN	-83.7	
15.905	-3.36	NaN	-95.8	
15.91	-3.45	NaN	-102.3	
15.915	-3.53	NaN	-100	
15.92	-3.62	-20.476	-90.4	
15.925	-3.71	NaN	-73.1	
15.93	-3.79	-20.473	-69.9	
15.935	-3.88	NaN	-106.6	
15.94	-3.96	-20.268	-129.7	
15.945	-4.04	-19.636	-131.6	
15.95	-4.12	-19.263	-146.7	
15.955	-4.2	-18.592	-111.7	
15.96	-4.26	-16.784	33	
15.965	-4.32	-15.058	232.8	
15.97	-4.38	-14.269	416.7	
15.975	-4.43	-13.588	481.1	
15.98	-4.47	-12.75	405.9	
15.985	-4.51	-12.195	232.3	
15.99	-4.55	-11.591	-14.2	
15.995	-4.59	-10.786	-168.2	
16	-4.62	-10.091	-150.6	
16.005	-4.65	-8.93	-120.6	
16.01	-4.67	-7.058	-128.2	
16.015	-4.67	-5.734	-100.9	
16.02	-4.68	-5.367	-80.1	
16.025	-4.69	-5.221	-77.3	
16.03	-4.69	-5.518	-93.4	
16.035	-4.7	-6.327	-117.1	
16.04	-4.71	-6.271	-103.5	
16.045	-4.72	-5.03	-92	
16.05	-4.72	-3.93	-100.1	
16.055	-4.71	-3.209	-61.9	
16.06	-4.71	-2.731	-34.6	
16.065	-4.7	-3.258	-42.1	
16.07	-4.7	-4.284	-30.8	
16.075	-4.7	-4.546	-24.9	
16.08	-4.7	-4.599	5	
16.085	-4.7	-5.354	42.2	
16.09	-4.71	-6.043	41.1	
16.095	-4.72	-6.143	28	
16.1	-4.73	-6.375	66.3	
16.105	-4.74	-7.018	111.2	
16.11	-4.75	-8.004	102.5	
16.115	-4.78	-9.27	154.4	
16.12	-4.8	-9.799	212.3	
16.125	-4.83	-8.626	157.3	
16.13	-4.84	-6.064	138.8	
16.135	-4.84	-2.061	178	
16.14	-4.82	3.806	162.3	
16.145	-4.76	11.269	146.3	
16.15	-4.66	18.03	154.8	
16.155	-4.54	NaN	117.4	
16.16	-4.42	20.429	100.2	
16.165	-4.29	NaN	101.6	
16.17	-4.17	20.475	46	
16.175	-4.05	NaN	35	
16.18	-3.93	NaN	28.1	
16.185	-3.81	NaN	8	
16.19	-3.69	NaN	47.3	
16.195	-3.57	NaN	37.1	
16.2	-3.45	20.475	10	
16.205	-3.34	NaN	20.6	
16.21	-3.22	20.461	14.7	
16.215	-3.1	NaN	-14.3	
16.22	-2.99	19.618	-11	
16.225	-2.88	16.623	26	
16.23	-2.8	12.486	14.2	
16.235	-2.73	8.143	-39.3	
16.24	-2.69	4.36	-39.3	
16.245	-2.66	1.369	-3.9	
16.25	-2.65	-1.711	16	
16.255	-2.66	-4.711	13.3	
16.26	-2.67	-7.428	-18.4	
16.265	-2.71	-10.583	-8.5	
16.27	-2.75	-13.594	-10	
16.275	-2.81	-15.103	-28.2	
16.28	-2.88	-15.732	-4.5	
16.285	-2.95	-16.747	6.5	
16.29	-3.02	-17.711	-17.2	
16.295	-3.1	-18.559	-54.8	
16.3	-3.18	-19.787	-70.7	
16.305	-3.26	-20.469	-61.7	
16.31	-3.35	-20.474	-45.6	
16.315	-3.44	NaN	-72.9	
16.32	-3.52	NaN	-64.9	
16.325	-3.61	-20.479	-42.1	
16.33	-3.7	NaN	-84	
16.335	-3.78	NaN	-49.5	
16.34	-3.87	NaN	-19.4	
16.345	-3.95	NaN	-71.2	
16.35	-4.04	NaN	-87.7	
16.355	-4.12	-20.478	-53.6	
16.36	-4.2	NaN	-42.6	
16.365	-4.29	-20.473	-73.3	
16.37	-4.37	NaN	-94.4	
16.375	-4.45	-20.057	-116.7	
16.38	-4.53	-19.112	-92.9	
16.385	-4.6	-18.316	40.4	
16.39	-4.67	-17.306	238.9	
16.395	-4.73	-16.093	417.5	
16.4	-4.79	-15.516	515.5	
16.405	-4.84	-15.063	504.9	
16.41	-4.89	-13.986	358.9	
16.415	-4.94	-12.854	110.9	
16.42	-4.97	-11.762	-130.5	
16.425	-5.01	-10.01	-200.4	
16.43	-5.03	-8.243	-116.4	
16.435	-5.04	-7.314	-44.3	
16.44	-5.06	-6.517	26.5	
16.445	-5.06	-5.609	118.1	
16.45	-5.07	-5.317	115.9	
16.455	-5.07	-5.138	78.1	
16.46	-5.07	-4.554	64.8	
16.465	-5.07	-4.469	33.2	
16.47	-5.07	-4.82	23.6	
16.475	-5.07	-4.69	26.8	
16.48	-5.07	-4.561	-4	
16.485	-5.07	-5.248	-9.7	
16.49	-5.08	-6.029	15.5	
16.495	-5.08	-6.242	7	
16.5	-5.09	-6.481	26.2	
16.505	-5.1	-6.641	29.3	
16.51	-5.11	-6.211	1.8	
16.515	-5.12	-5.926	2.3	
16.52	-5.12	-6.053	48.6	
16.525	-5.13	-5.8	109.2	
16.53	-5.13	-5.659	118.3	
16.535	-5.14	-6.233	133.1	
16.54	-5.15	-6.558	177.7	
16.545	-5.16	-6.398	228.2	
16.55	-5.17	-6.634	237.6	
16.555	-5.18	-6.444	223.3	
16.56	-5.18	-4.089	226.1	
16.565	-5.17	0.299	218.9	
16.57	-5.13	5.878	231.2	
16.575	-5.06	13.047	225	
16.58	-4.95	19.065	205.4	
16.585	-4.83	NaN	171.5	
16.59	-4.71	20.421	142.1	
16.595	-4.58	NaN	105.8	
16.6	-4.46	20.46	101.8	
16.605	-4.34	NaN	133.8	
16.61	-4.21	NaN	111.3	
16.615	-4.09	NaN	124.5	
16.62	-3.97	NaN	120.4	
16.625	-3.85	NaN	107	
16.63	-3.73	20.474	124	
16.635	-3.61	NaN	105.1	
16.64	-3.49	20.459	103.1	
16.645	-3.38	NaN	126.4	
16.65	-3.26	19.31	126.9	
16.655	-3.16	15.683	127	
16.66	-3.08	11.511	143.4	
16.665	-3.01	7.683	122.1	
16.67	-2.97	3.962	99.6	
16.675	-2.95	0.804	122.2	
16.68	-2.94	-2.472	132.4	
16.685	-2.94	-6.047	136.2	
16.69	-2.97	-8.527	122.9	
16.695	-3	-9.782	121.1	
16.7	-3.04	-11.097	132.9	
16.705	-3.08	-12.398	130.4	
16.71	-3.13	-13.199	137	
16.715	-3.19	-14.243	133.6	
16.72	-3.25	-15.52	113.2	
16.725	-3.31	-16.235	101.2	
16.73	-3.38	-16.854	123.8	
16.735	-3.45	-17.953	146.4	
16.74	-3.53	-18.674	199.2	
16.745	-3.6	-19.02	235.2	
16.75	-3.69	-19.874	206.6	
16.755	-3.77	-20.464	200.2	
16.76	-3.85	-20.476	213.3	
16.765	-3.94	NaN	208.2	
16.77	-4.02	NaN	184.6	
16.775	-4.11	NaN	179.8	
16.78	-4.19	-20.478	174.3	
16.785	-4.27	-20.463	158.5	
16.79	-4.35	-19.975	144.8	
16.795	-4.43	-19.225	142.5	
16.8	-4.51	-19.26	141.3	
16.805	-4.58	-19.422	131.3	
16.81	-4.66	-18.867	201.5	
16.815	-4.73	-18.295	373	
16.82	-4.8	-17.858	516.8	
16.825	-4.86	-16.756	561.6	
16.83	-4.92	-15.194	542	
16.835	-4.97	-13.904	396	
16.84	-5.01	-12.684	122.1	
16.845	-5.05	-11.481	-39.6	
16.85	-5.08	-10.682	-6.3	
16.855	-5.11	-9.831	7.8	
16.86	-5.13	-8.509	6.4	
16.865	-5.15	-7.364	36.6	
16.87	-5.16	-6.36	45.7	
16.875	-5.17	-5.015	45.4	
16.88	-5.16	-4.276	43.6	
16.885	-5.16	-4.576	65.9	
16.89	-5.16	-4.854	77.6	
16.895	-5.16	-4.643	78.7	
16.9	-5.16	-4.353	100.8	
16.905	-5.16	-4.152	106.2	
16.91	-5.16	-4.339	73.8	
16.915	-5.16	-5.326	84.3	
16.92	-5.16	-6.056	116.8	
16.925	-5.17	-5.429	131.1	
16.93	-5.17	-4.533	151.6	
16.935	-5.17	-4.456	139.6	
16.94	-5.17	-4.471	138.6	
16.945	-5.16	-4.222	166	
16.95	-5.16	-4.421	217.3	
16.955	-5.16	-4.718	264	
16.96	-5.16	-4.679	267.8	
16.965	-5.16	-5.205	288.6	
16.97	-5.17	-6.218	312	
16.975	-5.18	-6.696	300.8	
16.98	-5.19	-6.648	310.6	
16.985	-5.19	-5.674	318.9	
16.99	-5.19	-1.974	292.3	
16.995	-5.16	4.231	298.9	
17	-5.1	11.333	261.8	
17.005	-5	17.799	199.7	
17.01	-4.88	NaN	190.2	
17.015	-4.76	20.438	157.5	
17.02	-4.63	NaN	136.7	
17.025	-4.51	20.479	139	
17.03	-4.39	20.477	137.6	
17.035	-4.26	NaN	119.1	
17.04	-4.14	NaN	105.6	
17.045	-4.02	NaN	121.6	
17.05	-3.9	NaN	127.8	
17.055	-3.78	20.476	113.9	
17.06	-3.66	NaN	97.3	
17.065	-3.54	20.468	144	
17.07	-3.43	NaN	147.2	
17.075	-3.31	19.725	100.4	
17.08	-3.2	16.563	137	
17.085	-3.12	11.863	136.6	
17.09	-3.05	7.786	115.6	
17.095	-3.01	4.711	117.6	
17.1	-2.98	1.909	98.5	
17.105	-2.96	-0.614	97	
17.11	-2.96	-2.808	100.3	
17.115	-2.96	-5.375	110	
17.12	-2.98	-7.906	126.3	
17.125	-3.01	-9.369	141	
17.13	-3.05	-10.367	135.2	
17.135	-3.09	-11.808	89	
17.14	-3.14	-13.112	81	
17.145	-3.19	-14.206	95.2	
17.15	-3.25	-15.818	94	
17.155	-3.32	-17.371	104.3	
17.16	-3.39	-18.218	87.3	
17.165	-3.47	-18.894	84.9	
17.17	-3.55	-19.414	107.9	
17.175	-3.63	-19.448	91.9	
17.18	-3.71	-19.806	60.1	
17.185	-3.8	-20.391	48.9	
17.19	-3.88	NaN	87.9	
17.195	-3.97	-20.476	103.7	
17.2	-4.05	NaN	87.8	
17.205	-4.13	-20.477	104.4	
17.21	-4.22	NaN	93.9	
17.215	-4.3	-20.474	84.3	
17.22	-4.38	-20.151	115	
17.225	-4.46	-19.178	108.8	
17.23	-4.53	-18.248	164.4	
17.235	-4.6	-17.867	348.1	
17.24	-4.67	-17.253	485.8	
17.245	-4.73	-16.437	520.7	
17.25	-4.79	-16.423	452.2	
17.255	-4.85	-16.393	264.5	
17.26	-4.91	-15.145	44.8	
17.265	-4.96	-13.553	-58.6	
17.27	-5	-12.332	-14.8	
17.275	-5.04	-11.08	39.5	
17.28	-5.06	-10.038	67.1	
17.285	-5.09	-9.318	91.3	
17.29	-5.11	-8.034	62.1	
17.295	-5.12	-6.404	21.7	
17.3	-5.13	-5.628	36	
17.305	-5.13	-5.241	69.1	
17.31	-5.13	-4.289	80.9	
17.315	-5.13	-3.573	42.7	
17.32	-5.12	-3.504	41.1	
17.325	-5.12	-3.384	68.5	
17.33	-5.11	-3.717	51.5	
17.335	-5.11	-4.768	88.1	
17.34	-5.11	-5.159	109.2	
17.345	-5.11	-4.653	104.9	
17.35	-5.11	-4.354	109.9	
17.355	-5.11	-4.029	108.3	
17.36	-5.1	-3.29	147.7	
17.365	-5.1	-3.076	147.3	
17.37	-5.09	-3.411	140.2	
17.375	-5.08	-3.549	189.3	
17.38	-5.08	-4.091	226.1	
17.385	-5.08	-5.373	247.8	
17.39	-5.08	-6.046	239.1	
17.395	-5.09	-5.803	221.7	
17.4	-5.1	-5.334	232.4	
17.405	-5.09	-3.052	242.4	
17.41	-5.07	2.279	221.3	
17.415	-5.02	9.752	200.7	
17.42	-4.93	17.183	191.2	
17.425	-4.81	20.448	151	
17.43	-4.69	20.441	143.8	
17.435	-4.56	NaN	133	
17.44	-4.44	NaN	112.8	
17.445	-4.32	20.474	98.6	
17.45	-4.2	NaN	49.1	
17.455	-4.08	NaN	66.1	
17.46	-3.95	NaN	97.7	
17.465	-3.83	NaN	70.3	
17.47	-3.71	NaN	75.7	
17.475	-3.59	20.477	98.8	
17.48	-3.48	NaN	113.2	
17.485	-3.36	20.468	105.2	
17.49	-3.24	20.473	84.5	
17.495	-3.13	19.398	80.9	
17.5	-3.02	15.99	86	
17.505	-2.94	11.896	90.5	
17.51	-2.88	8.523	84.1	
17.515	-2.83	4.975	89.7	
17.52	-2.8	1.253	82.8	
17.525	-2.79	-1.543	57.7	
17.53	-2.79	-3.749	81.6	
17.535	-2.8	-6.035	106	
17.54	-2.82	-7.741	69.8	
17.545	-2.85	-8.911	62.7	
17.55	-2.89	-10.505	62.8	
17.555	-2.93	-12.293	33.6	
17.56	-2.98	-13.808	48.5	
17.565	-3.04	-15.318	38.3	
17.57	-3.11	-16.387	26.7	
17.575	-3.18	-16.508	30.4	
17.58	-3.24	-16.591	7.2	
17.585	-3.31	-17.334	21.8	
17.59	-3.39	-17.961	46.8	
17.595	-3.46	-18.246	30.8	
17.6	-3.54	-18.901	46.8	
17.605	-3.62	-19.594	63.4	
17.61	-3.7	-19.701	11.3	
17.615	-3.78	-19.67	-12.9	
17.62	-3.86	-19.529	20.3	
17.625	-3.94	-18.706	52.2	
17.63	-4.01	-17.822	77.2	
17.635	-4.08	-17.606	95.4	
17.64	-4.15	-17.316	105	
17.645	-4.22	-16.736	136.3	
17.65	-4.28	-16.536	221.8	
17.655	-4.34	-16.121	344.4	
17.66	-4.4	-14.976	397.7	
17.665	-4.45	-14.01	309.2	
17.67	-4.5	-13.304	181.6	
17.675	-4.54	-12.038	41.2	
17.68	-4.58	-10.671	-71.3	
17.685	-4.61	-9.88	-41.8	
17.69	-4.63	-8.954	17.7	
17.695	-4.66	-7.773	48.9	
17.7	-4.67	-7.201	51.6	
17.705	-4.68	-6.401	-2.4	
17.71	-4.69	-4.215	-0.3	
17.715	-4.68	-2.359	32.7	
17.72	-4.67	-2.483	19.8	
17.725	-4.67	-3.268	13.8	
17.73	-4.66	-3.712	26.2	
17.735	-4.66	-4.099	51.6	
17.74	-4.66	-3.898	24	
17.745	-4.66	-3.425	26.2	
17.75	-4.65	-3.751	66.5	
17.755	-4.65	-4.062	50.3	
17.76	-4.65	-3.562	89.8	
17.765	-4.65	-3.356	98.6	
17.77	-4.64	-3.794	45.7	
17.775	-4.64	-3.854	84.8	
17.78	-4.64	-3.683	123.8	
17.785	-4.64	-3.961	115.2	
17.79	-4.63	-4.247	151.3	
17.795	-4.64	-4.644	183.4	
17.8	-4.64	-5.628	185.1	
17.805	-4.65	-6.113	171.4	
17.81	-4.66	-5.343	141.5	
17.815	-4.66	-3.618	164.7	
17.82	-4.65	-0.098	196.6	
17.825	-4.61	5.878	179.8	
17.83	-4.54	13.507	167.4	
17.835	-4.44	19.264	145.3	
17.84	-4.32	NaN	118.5	
17.845	-4.2	20.425	117.3	
17.85	-4.07	NaN	98.7	
17.855	-3.95	20.461	95.8	
17.86	-3.83	NaN	75.6	
17.865	-3.71	NaN	42.8	
17.87	-3.59	NaN	49	
17.875	-3.48	NaN	33.9	
17.88	-3.36	NaN	26.6	
17.885	-3.24	NaN	20.7	
17.89	-3.12	NaN	28.1	
17.895	-3.01	NaN	51.3	
17.9	-2.89	20.471	66.1	
17.905	-2.77	20.447	44.8	
17.91	-2.66	19.162	24	
17.915	-2.56	15.529	49.6	
17.92	-2.48	11.129	45.8	
17.925	-2.43	7.474	52.1	
17.93	-2.39	4.046	69.1	
17.935	-2.37	0.416	64.3	
17.94	-2.36	-2.382	54.4	
17.945	-2.37	-4.337	38.3	
17.95	-2.38	-6.731	41.7	
17.955	-2.41	-9.177	30.6	
17.96	-2.45	-10.762	26.7	
17.965	-2.5	-12.068	22.2	
17.97	-2.55	-13.348	-25.4	
17.975	-2.61	-13.967	-46.8	
17.98	-2.67	-14.395	-42.2	
17.985	-2.73	-15.471	-26.4	
17.99	-2.79	-16.541	-19.7	
17.995	-2.87	-17.291	-25.3	
18	-2.94	-18.455	-27.7	
18.005	-3.02	-19.541	-50.5	
18.01	-3.11	-19.819	-58.8	
18.015	-3.19	-19.854	-44.6	
18.02	-3.28	-19.703	-31.9	
18.025	-3.36	-18.959	-18.8	
18.03	-3.44	-18.418	-19.2	
18.035	-3.51	-18.654	-8.6	
18.04	-3.59	-18.744	21.5	
18.045	-3.67	-18.262	-16.8	
18.05	-3.74	-17.874	-50.7	
18.055	-3.81	-17.385	2.6	
18.06	-3.88	-16.387	48.6	
18.065	-3.94	-15.592	122.3	
18.07	-4	-14.966	272.6	
18.075	-4.05	-13.749	337.9	
18.08	-4.1	-12.527	277.5	
18.085	-4.14	-11.765	180.1	
18.09	-4.18	-10.554	9.8	
18.095	-4.21	-8.986	-127.3	
18.1	-4.23	-8.059	-128	
18.105	-4.25	-7.288	-82.7	
18.11	-4.26	-5.997	-44.2	
18.115	-4.27	-4.992	-21.8	
18.12	-4.27	-4.332	-15.8	
18.125	-4.27	-3.127	-15.4	
18.13	-4.27	-2.402	-21.5	
18.135	-4.26	-3.212	-27	
18.14	-4.26	-4.058	-8.3	
18.145	-4.26	-3.985	6.7	
18.15	-4.26	-3.795	-3.8	
18.155	-4.26	-3.471	-21.4	
18.16	-4.26	-3.137	-18.9	
18.165	-4.25	-3.8	-9.1	
18.17	-4.26	-4.935	-10.3	
18.175	-4.26	-5.397	20.2	
18.18	-4.27	-5.577	59.6	
18.185	-4.28	-6.014	62.4	
18.19	-4.29	-6.104	38	
18.195	-4.3	-5.64	49.3	
18.2	-4.31	-5.362	89.4	
18.205	-4.32	-5.236	114.3	
18.21	-4.32	-5.085	129.8	
18.215	-4.33	-5.466	137.3	
18.22	-4.34	-6.016	141.5	
18.225	-4.35	-5.745	123.2	
18.23	-4.35	-4.429	114.1	
18.235	-4.35	-1.496	144.8	
18.24	-4.32	3.898	136	
18.245	-4.27	11.449	122.7	
18.25	-4.17	18.204	114.4	
18.255	-4.05	NaN	54.9	
18.26	-3.93	20.428	39.8	
18.265	-3.81	NaN	54.9	
18.27	-3.69	20.473	38.1	
18.275	-3.57	NaN	48	
18.28	-3.46	NaN	39	
18.285	-3.34	NaN	2.8	
18.29	-3.22	NaN	-11.9	
18.295	-3.1	NaN	-10.7	
18.3	-2.99	NaN	34.5	
18.305	-2.87	20.479	60.3	
18.31	-2.76	NaN	36.4	
18.315	-2.64	20.471	9	
18.32	-2.53	20.473	8.7	
18.325	-2.42	19.471	29.8	
18.33	-2.31	16.181	32.4	
18.335	-2.23	11.732	15.8	
18.34	-2.18	7.806	47.1	
18.345	-2.14	4.379	81.9	
18.35	-2.11	0.859	49.6	
18.355	-2.11	-2.439	58.7	
18.36	-2.12	-5.022	101.6	
18.365	-2.14	-7.343	110.3	
18.37	-2.17	-9.573	131.7	
18.375	-2.21	-11.092	170.7	
18.38	-2.26	-12.232	192.4	
18.385	-2.31	-13.765	161.1	
18.39	-2.38	-15.319	125.7	
18.395	-2.45	-16.652	133.8	
18.4	-2.52	-18.011	119.4	
18.405	-2.6	-18.806	117.8	
18.41	-2.68	-18.736	132.2	
18.415	-2.77	-18.811	136.2	
18.42	-2.85	-19.318	106.5	
18.425	-2.93	-19.497	80.7	
18.43	-3.02	-19.664	155.4	
18.435	-3.1	-20.229	140.9	
18.44	-3.19	-20.44	76	
18.445	-3.28	-20.109	92.6	
18.45	-3.36	-19.877	68.6	
18.455	-3.44	-19.448	61.8	
18.46	-3.52	-18.495	78.9	
18.465	-3.6	-17.899	68	
18.47	-3.67	-17.571	65.8	
18.475	-3.74	-16.538	96	
18.48	-3.8	-15.363	137.2	
18.485	-3.86	-14.799	195.4	
18.49	-3.91	-14.082	287.3	
18.495	-3.96	-12.874	375.8	
18.5	-4	-11.984	393.2	
18.505	-4.04	-11.111	273.8	
18.51	-4.08	-9.544	81.1	
18.515	-4.1	-8.179	-67.7	
18.52	-4.12	-7.378	-103.7	
18.525	-4.14	-6.407	-24.4	
18.53	-4.15	-5.701	23.5	
18.535	-4.16	-5.615	-20.7	
18.54	-4.17	-5.034	-38	
18.545	-4.17	-3.908	6.6	
18.55	-4.17	-3.335	30.6	
18.555	-4.17	-3.199	-2.7	
18.56	-4.16	-3.201	-22.7	
18.565	-4.16	-3.615	8.6	
18.57	-4.16	-4.058	7.8	
18.575	-4.16	-3.961	-7.8	
18.58	-4.16	-4.002	-2.2	
18.585	-4.17	-4.762	18.2	
18.59	-4.17	-5.263	19.8	
18.595	-4.18	-5.237	-15.3	
18.6	-4.19	-5.659	-51.4	
18.605	-4.2	-6.299	-17	
18.61	-4.21	-6.461	58.8	
18.615	-4.22	-6.764	58.5	
18.62	-4.24	-7.205	71	
18.625	-4.25	-6.789	88.8	
18.63	-4.27	-6.152	107	
18.635	-4.28	-6.263	144.5	
18.64	-4.29	-6.263	152.2	
18.645	-4.3	-5.574	163.3	
18.65	-4.31	-4.53	156.6	
18.655	-4.3	-2.024	149.6	
18.66	-4.28	2.814	162.3	
18.665	-4.24	8.832	139.2	
18.67	-4.16	15.445	123.7	
18.675	-4.05	19.898	126.8	
18.68	-3.93	NaN	70.5	
18.685	-3.81	20.442	20.6	
18.69	-3.69	NaN	8.1	
18.695	-3.57	20.459	2.7	
18.7	-3.45	NaN	38	
18.705	-3.33	NaN	32	
18.71	-3.21	NaN	-10.2	
18.715	-3.1	NaN	-8.8	
18.72	-2.98	NaN	15.8	
18.725	-2.86	20.474	26.5	
18.73	-2.75	NaN	-4.5	
18.735	-2.63	20.464	-17.4	
18.74	-2.52	NaN	-13.2	
18.745	-2.41	19.638	-3.8	
18.75	-2.31	16.082	-17	
18.755	-2.23	11.394	-34	
18.76	-2.17	7.598	-12.1	
18.765	-2.13	3.845	-1.9	
18.77	-2.11	-0.028	-5.7	
18.775	-2.11	-3.085	-33.3	
18.78	-2.12	-5.644	-31	
18.785	-2.15	-8.2	-14	
18.79	-2.19	-10.006	-22.1	
18.795	-2.23	-11.159	-41.6	
18.8	-2.28	-12.759	-39.3	
18.805	-2.34	-14.479	-9.2	
18.81	-2.4	-15.616	-29.4	
18.815	-2.47	-16.698	-52.7	
18.82	-2.54	-17.599	-59.1	
18.825	-2.62	-17.581	-92.5	
18.83	-2.69	-17.418	-95.9	
18.835	-2.77	-17.963	-84	
18.84	-2.85	-18.57	-74.1	
18.845	-2.93	-19.029	-82.1	
18.85	-3.01	-19.761	-102.6	
18.855	-3.1	-20.05	-96.1	
18.86	-3.18	-19.497	-77.1	
18.865	-3.27	-19.094	-56.7	
18.87	-3.35	-18.951	-61.7	
18.875	-3.42	-18.341	-70.9	
18.88	-3.5	-17.743	-61.8	
18.885	-3.57	-17.705	-61.4	
18.89	-3.64	-17.445	-77.3	
18.895	-3.71	-16.742	-59.3	
18.9	-3.78	-16.34	-39.7	
18.905	-3.84	-15.687	-77.1	
18.91	-3.9	-13.994	-22.8	
18.915	-3.94	-12.172	120.8	
18.92	-3.98	-10.715	261.3	
18.925	-4.01	-9.049	388.4	
18.93	-4.04	-7.716	370.7	
18.935	-4.05	-7.248	199.7	
18.94	-4.07	-6.764	-25.3	
18.945	-4.09	-6.076	-151.6	
18.95	-4.1	-5.795	-130.3	
18.955	-4.1	-5.236	-103.9	
18.96	-4.11	-3.91	-115.1	
18.965	-4.11	-3.143	-92.1	
18.97	-4.1	-3.211	-43	
18.975	-4.1	-3.127	-54	
18.98	-4.1	-3.364	-76.9	
18.985	-4.1	-4.431	-82.3	
18.99	-4.11	-5.426	-69.9	
18.995	-4.11	-6.013	-42.4	
19	-4.13	-6.655	-66.5	
19.005	-4.14	-6.869	-82.9	
19.01	-4.16	-6.487	-48.6	
19.015	-4.17	-6.63	-15.9	
19.02	-4.19	-7.02	-22.2	
19.025	-4.2	-6.706	-28.3	
19.03	-4.21	-6.601	-23.7	
19.035	-4.23	-7.352	-17.4	
19.04	-4.25	-7.829	37.8	
19.045	-4.27	-7.654	68.2	
19.05	-4.29	-7.708	56.8	
19.055	-4.31	-7.723	88.3	
19.06	-4.32	-7.585	127.1	
19.065	-4.34	-8.347	145.1	
19.07	-4.37	-9.284	165.6	
19.075	-4.39	-8.79	166.8	
19.08	-4.41	-6.971	171.7	
19.085	-4.42	-3.847	188.8	
19.09	-4.41	1.55	191.1	
19.095	-4.36	8.297	168.5	
19.1	-4.29	14.835	138.7	
19.105	-4.18	19.434	123.1	
19.11	-4.06	NaN	93.8	
19.115	-3.94	20.433	76.2	
19.12	-3.82	NaN	41.9	
19.125	-3.7	20.466	-1.1	
19.13	-3.58	NaN	4.8	
19.135	-3.46	NaN	28.6	
19.14	-3.34	NaN	28.7	
19.145	-3.23	NaN	12.3	
19.15	-3.11	20.475	-16.9	
19.155	-2.99	NaN	-24.1	
19.16	-2.88	20.462	8	
19.165	-2.76	NaN	5.5	
19.17	-2.65	19.776	-23.8	
19.175	-2.54	17.041	-39.3	
19.18	-2.46	13.086	-24.2	
19.185	-2.39	8.795	-8.2	
19.19	-2.35	4.781	-23.2	
19.195	-2.32	1.201	-30.5	
19.2	-2.31	-2.519	-11.1	
19.205	-2.32	-5.901	-3.3	
19.21	-2.35	-8.634	-7.4	
19.215	-2.39	-11.403	-27.1	
19.22	-2.44	-13.989	-45.2	
19.225	-2.5	-15.613	-47.3	
19.23	-2.57	-16.9	-38.3	
19.235	-2.65	-18.399	-11.9	
19.24	-2.73	-19.26	-14.5	
19.245	-2.82	-19.5	-66.8	
19.25	-2.9	-19.997	-95.6	
19.255	-2.99	-20.238	-68.9	
19.26	-3.08	-19.839	-89.3	
19.265	-3.16	-19.874	-126.2	
19.27	-3.25	-20.383	-123.2	
19.275	-3.33	-20.418	-99.6	
19.28	-3.42	-20.013	-74.8	
19.285	-3.5	-19.682	-67.8	
19.29	-3.58	-19.256	-80.5	
19.295	-3.66	-19.042	-96.4	
19.3	-3.74	-19.746	-93.7	
19.305	-3.83	-20.443	-98.5	
19.31	-3.91	-20.291	-96.8	
19.315	-3.99	-19.529	-81.3	
19.32	-4.07	-17.819	-94.3	
19.325	-4.13	-15.534	-82.6	
19.33	-4.19	-14.408	-87.2	
19.335	-4.24	-14.356	-126.4	
19.34	-4.29	-13.531	-64.6	
19.345	-4.33	-12.131	86	
19.35	-4.37	-11.333	298.3	
19.355	-4.41	-10.306	456.9	
19.36	-4.43	-8.617	462.7	
19.365	-4.45	-7.644	365.5	
19.37	-4.47	-7.439	149.9	
19.375	-4.49	-6.641	-85	
19.38	-4.5	-5.472	-169.1	
19.385	-4.5	-4.836	-148.2	
19.39	-4.5	-4.322	-131.3	
19.395	-4.5	-3.919	-114.7	
19.4	-4.5	-4.169	-95.8	
19.405	-4.5	-4.293	-96.2	
19.41	-4.5	-3.856	-106.8	
19.415	-4.5	-3.953	-102.3	
19.42	-4.5	-4.664	-98.2	
19.425	-4.51	-4.983	-110	
19.43	-4.51	-5.31	-96.7	
19.435	-4.52	-6.109	-72	
19.44	-4.53	-6.375	-53.2	
19.445	-4.54	-6.031	-28.4	
19.45	-4.55	-6.034	-32.8	
19.455	-4.56	-6.193	-25.4	
19.46	-4.57	-6.157	-9.4	
19.465	-4.58	-6.633	-29.8	
19.47	-4.59	-7.599	-19.2	
19.475	-4.61	-8.196	25.7	
19.48	-4.63	-8.604	46.4	
19.485	-4.66	-9.119	75.8	
19.49	-4.68	-9.301	103	
19.495	-4.71	-9.297	113.7	
19.5	-4.73	-9.504	138.4	
19.505	-4.76	-9.249	155.3	
19.51	-4.78	-7.728	147	
19.515	-4.79	-4.734	144.7	
19.52	-4.78	0.297	148.7	
19.525	-4.74	7.511	137.1	
19.53	-4.66	15.388	113.8	
19.535	-4.55	19.994	119.7	
19.54	-4.42	NaN	119.5	
19.545	-4.3	20.448	39.9	
19.55	-4.18	NaN	5	
19.555	-4.06	20.463	12.2	
19.56	-3.94	NaN	13	
19.565	-3.82	NaN	11.5	
19.57	-3.7	NaN	-15.7	
19.575	-3.58	NaN	-15.8	
19.58	-3.46	20.474	-8.4	
19.585	-3.34	NaN	-4.1	
19.59	-3.23	20.472	-9.1	
19.595	-3.11	NaN	-36.6	
19.6	-2.99	20.186	-57.3	
19.605	-2.88	17.93	-42.4	
19.61	-2.79	14.026	-28.5	
19.615	-2.72	9.601	-60.2	
19.62	-2.67	4.988	-45.4	
19.625	-2.64	1.232	-8.2	
19.63	-2.63	-1.922	-41.3	
19.635	-2.64	-5.348	-83.3	
19.64	-2.66	-8.332	-71.7	
19.645	-2.7	-10.592	-37.7	
19.65	-2.74	-12.821	-62.1	
19.655	-2.8	-14.494	-117.5	
19.66	-2.86	-15.238	-77.6	
19.665	-2.92	-16.246	-19.7	
19.67	-3	-17.703	-37.1	
19.675	-3.07	-18.613	-38	
19.68	-3.15	-19.378	-64	
19.685	-3.24	-20.244	-120.4	
19.69	-3.33	NaN	-129.1	
19.695	-3.41	-20.47	-126.4	
19.7	-3.5	NaN	-97.2	
19.705	-3.59	-20.475	-75.2	
19.71	-3.67	NaN	-122	
19.715	-3.76	NaN	-144	
19.72	-3.84	-20.479	-140.6	
19.725	-3.93	NaN	-148.3	
19.73	-4.01	-20.475	-137	
19.735	-4.09	-20.473	-110.7	
19.74	-4.18	-20.021	-93	
19.745	-4.26	-19.081	-95.1	
19.75	-4.33	-18.424	-85.5	
19.755	-4.4	-17.497	-89.2	
19.76	-4.46	-15.784	-126.2	
19.765	-4.52	-14.42	-130.7	
19.77	-4.57	-13.679	-109.8	
19.775	-4.61	-12.66	-52.8	
19.78	-4.65	-11.567	147.2	
19.785	-4.69	-10.884	401.6	
19.79	-4.72	-9.987	547.9	
19.795	-4.74	-8.879	544.7	
19.8	-4.76	-8.301	422.3	
19.805	-4.78	-7.788	184.4	
19.81	-4.8	-6.889	-119	
19.815	-4.81	-6.408	-236	
19.82	-4.82	-6.169	-188.2	
19.825	-4.82	-5.125	-142.5	
19.83	-4.82	-3.912	-109.6	
19.835	-4.82	-3.376	-105.7	
19.84	-4.81	-2.792	-133.3	
19.845	-4.8	-2.089	-126.3	
19.85	-4.79	-2.277	-88.5	
19.855	-4.78	-3.094	-94.9	
19.86	-4.78	-3.796	-89.5	
19.865	-4.78	-4.742	-105.3	
19.87	-4.78	-5.603	-110.9	
19.875	-4.79	-5.513	-61.8	
19.88	-4.79	-5.288	-60.2	
19.885	-4.8	-5.883	-73.3	
19.89	-4.81	-6.544	-67	
19.895	-4.82	-6.853	-45.8	
19.9	-4.83	-7.516	-2.4	
19.905	-4.85	-8.102	2	
19.91	-4.87	-7.985	-0.4	
19.915	-4.89	-7.933	33.2	
19.92	-4.9	-8.286	65.5	
19.925	-4.92	-8.422	93.4	
19.93	-4.94	-8.152	119.8	
19.935	-4.96	-8.146	146.5	
19.94	-4.98	-7.918	158.7	
19.945	-4.99	-6.111	163.4	
19.95	-4.99	-2.377	163.6	
19.955	-4.96	3.328	161.5	
19.96	-4.91	10.849	156.1	
19.965	-4.81	17.804	118.1	
19.97	-4.69	NaN	92.5	
19.975	-4.57	20.438	100.2	
19.98	-4.45	NaN	77.8	
19.985	-4.32	20.477	30.8	
19.99	-4.2	20.479	13.1	
19.995	-4.08	NaN	9.2	
20	-3.96	NaN	-14.4	
